0,1,2,3,4,5,6,7,8,9,10,11,12,13,14,15,16,17,18,19,20,21,22,23,24,25,26,27,28,29
-35.13554051512186,-0.7639908631325035,1.5241794904157444,0.1357925730772315,0.1694659811694187,-0.02520960397634891,0.1295329521046666,0.028826592223649368,0.00215356394831639,-0.01782499146770899,0.010808913206176395,-0.008765679940273264,0.0006520728209261757,-0.0005141402796036624,0.004520667100624423,0.004679011294766744,0.0008252665447596789,-0.00037094724775996044,-0.0017800258515629176,-0.0016136778773938108,-0.000690992096466346,-4.584319765237421e-05,-8.066809451091799e-05,-1.85868719298258e-05,1.9080735528839838e-05,-1.8961421947036214e-05,-1.6082911052926628e-05,4.183098062978455e-05,2.6199927389366064e-05,6.882609155808394e-07
-39.910185950273814,0.35780067858440434,-0.11441744982694681,0.10551337549450458,0.034114544278370545,-0.17849524414015758,0.02940939373977184,0.05923657688603294,-0.009518717708101027,0.01740063154609616,-0.009554534712429891,-0.00015191471660857235,0.005914500200137019,0.0010903851123395618,0.004755063123991537,-0.0045853005274950984,-0.0024333601137024367,0.0010338306573007654,0.00023848812952739605,-0.0008042733178623378,-0.00032710620563215206,0.00010005579824995635,-4.747132975778148e-05,-3.8059289702228314e-05,2.112302191221568e-05,7.449639832003495e-05,-2.7711107791646515e-05,1.8009727648277332e-05,-3.829013177772873e-05,-1.5998799860737814e-06
-37.01579077562786,1.6330775285300494,0.07748986442707652,-0.010512508781891592,0.04466354050879628,0.04573056007528808,-0.043316935590366396,0.0347145937636297,-0.077776996482244,0.07089784875205826,-0.0001019103108429322,0.004180408890465168,0.008332745974213398,0.0006241664905860365,-0.001076814895517071,0.004281755811779105,9.361157558423366e-05,0.0008018528139130531,0.0007352090613676125,-0.0001528861910267378,0.0004258781394187418,0.0005824446444510305,0.00023471567888808022,-8.827268067485532e-05,4.469179919587081e-05,5.654161778750891e-05,-1.8756204055364997e-05,-6.474518083980289e-07,2.4531595016818056e-05,-4.266058200234942e-06
-37.90483160627528,2.4326615922981834,-0.4659749161438542,0.1897351754169897,0.1397956890664535,-0.16316023480738787,0.03185890807483888,0.027620108716240797,0.024466302263862066,-0.00139751021089681,-0.007616274359735447,-0.01755850205734824,0.005266871393168442,0.0017986345618034804,0.0018309023750902955,-0.004999002446925897,-0.002035147958067336,-0.0012212142990103664,-0.00044264814685996627,-0.001151861973842352,-0.0007184342337337513,0.00036988288517450355,0.00020065705080256653,-0.00010007286497665928,-1.2074256975551303e-05,-5.371361835448786e-06,-7.001385674723732e-05,2.2917042574353937e-06,-4.387500330857727e-05,-1.0141954359538904e-06
-36.50489187369797,1.9030437787207315,0.06659748979625461,0.06461253291375728,0.16254318015698432,-0.11671934204674876,-0.08192132302989696,-0.011196712744327307,0.03191066754270222,0.0011710334981888972,0.004571219798940186,-0.008922443957235763,0.011074884718898883,0.0035687288812141036,0.0010292676909156818,0.0019409114770073445,-0.0010815323789974813,-0.0010121124586445582,0.0002930341798872458,0.0004319415345409857,-0.0002938233823967353,2.2769822016475675e-05,-0.00013336508526019195,-5.1248954740099555e-05,-9.083535397175055e-05,5.654694208073122e-05,-3.582815422336792e-05,-1.3296299826293748e-05,-1.54623724483221e-05,1.8862746783253446e-06
-44.86770395128695,-3.6876367237612766,0.08589451192605593,0.10340360146045613,-0.04199921788707841,0.04299668427207876,-0.05313186517044555,-0.004576644761112259,0.0021828049255752545,-0.015014788768097025,0.01180812341388759,-0.006270603682826822,-0.0013532345021925476,0.0035890132419720247,-0.0030057257346404504,-0.0008403276355008553,0.00038754650647549425,-0.00033988099718235755,0.0012650380892920462,0.00041232324206558776,-4.3826267971210214e-05,0.00013865901645408854,-6.942460595453231e-05,-6.629152345319902e-05,-2.7194336267978666e-05,3.207374991614975e-07,-1.595393624332186e-05,-9.297514851017446e-06,-1.1715907621008975e-05,2.147889816408937e-06
-45.978252134401906,-2.2989404518805814,-0.6241560919537293,-0.10435917446734964,-0.059348716693478916,0.018819521951862955,-0.028937401759264545,0.06446466762263774,0.02460255579625459,-0.01215439161529263,0.011016367834068825,-0.014665950489855034,-0.002568873113241717,0.008849745941761803,-0.01207130415325199,0.000747401612671062,0.003372724995156366,0.001578429546563301,-0.0009527710769360551,0.0008815157481010367,0.00011832954703698506,-0.00013481702679723055,-5.776555054494327e-05,-7.829461785257286e-06,-6.488415401097859e-06,3.527655567611191e-05,-1.1616551052008781e-05,-4.714524155594935e-05,-2.5454567152994582e-05,5.114416846857276e-07
-35.912073471484916,0.4183042380660125,0.998763731915034,-0.282749400076885,0.35652705623162184,0.07628194250705221,0.0313270004789639,0.08536052117389809,-0.02669517531720772,0.005200080339304296,0.011973524622773336,-0.013116485872765057,0.005896005971401393,-0.002300418969945124,0.006820985548527751,-0.0007369289308532332,0.0005894791731586783,0.0004009906679332493,0.001324205139439763,8.735308872059146e-05,-0.000991263003864826,-0.00023582946403558422,-2.4691580077651844e-08,-0.0001555738660360163,-2.924225111862586e-05,-5.7950415225757124e-05,2.8736821939417655e-05,4.447213123080594e-05,3.3649708199313865e-05,6.646396312141522e-07
-40.246925252083535,-2.814813859891505,0.7834159856688401,0.33650423578605065,-0.05207334131305052,-0.05951670479350744,-0.08270855570489243,0.02541801167318499,0.02830511466051619,0.014002633300798291,0.010903817035068984,-0.0020188886956178714,0.003148292936121749,-0.007984366189079864,-0.0068325870072704796,0.0010587792641640556,-0.0011541589941529702,0.0012771970915864141,-0.00017815174586306568,-0.0009419477947036389,-0.00036890504198298143,9.490597507188913e-05,0.0003446490308723175,0.00017009737745244088,6.479111597390845e-05,-4.744165027700765e-05,-9.303132031401661e-06,-5.0383476828546234e-05,4.16688268043088e-06,-6.294616117385473e-07
-46.90246780255092,-4.360673167859765,-0.2285574945246608,0.13721031626614383,-0.004142068122951967,0.08576341943863124,-0.0319252905440346,0.011012338437390934,-0.00852894919993354,0.011752138752832481,0.0029219312695759362,-0.013106102165337235,0.0029221601515036144,0.0007522257842935092,-0.005167773358753013,-0.0009997345929761117,-0.0015486528231941981,-0.0002369447886227122,0.0011279378186154316,-1.7482070012174738e-05,-0.00031462778258585885,-0.00022325067798157077,-7.855045440917261e-05,4.182182838720689e-05,-1.0604274533368283e-05,9.724549991062948e-05,-3.469197102933351e-05,1.365663838236196e-05,-1.6088155640572312e-05,-2.5298355155925525e-07
-39.34356756199425,-0.2174981321007429,0.1705285188298238,0.06090227854198624,0.08223902716959722,-0.13336917367360202,-0.0859745494432514,-0.034597940048022205,-0.03926372857708555,0.05004389513140058,0.005605742003601525,0.004411611303020994,0.0002557835548644976,0.004764888924171589,0.007877592999459296,-0.0027455285256881004,0.0007617671851445991,0.0010266520513903053,-0.001514765536853692,-1.9507184102477283e-05,-0.0002270512530158561,-8.686643372985636e-05,-5.792529412031864e-06,-3.055813730070863e-05,3.729644358744908e-05,3.360150748236338e-05,-6.243175315509013e-05,-5.053923973460961e-05,3.967491105165547e-06,-2.2478221651739426e-06
-40.77777733819274,0.967530891784961,-0.6112525029777328,0.10655789789936003,0.075177496792786,-0.09808982300251562,0.05053427962493026,0.0017336513272202545,0.02953170456928437,-0.013087530871769565,0.004871729696950523,-0.016791514208771396,0.0030407647507741217,0.0012381978498021782,0.005288020844099705,-0.0041422805969237655,-0.0032529941006760013,-0.0005442792604010902,-0.001080285062471296,-0.001386170381683348,-0.00044027419350619647,0.0001336115625685844,6.58955529270497e-05,-6.809088081913456e-05,-3.36656650152284e-05,-3.040452788174428e-05,-6.314169019433307e-05,-2.0713466968541397e-05,-5.355827418038443e-05,9.695466818222384e-07
-39.471803664030304,-0.04727318790513773,0.1782604660320064,0.06543573191190896,0.000970817024897307,-0.14919056467470201,0.07425800874554565,0.012537119585399763,-0.02978473613269709,0.010875072936368323,-0.0005200748179585548,-0.007158858254177311,0.0016856188274561304,0.002378693669496186,0.000544165299770637,-0.0036844273533944783,0.0009228865815399672,0.0018789574711965658,0.0010809500314606787,-0.0006558015300091209,-0.00040215110965390255,0.0001535613265155058,5.018629435853418e-05,-3.3504070543819575e-05,-4.7981158570669453e-05,-3.6160947136867436e-05,-2.893482717563901e-05,8.852393643747064e-06,-3.930106056944035e-05,-9.87060721099106e-07
-36.299914735186576,1.482297014529288,0.3653492410054192,-0.05474733335094695,0.06423591417590133,0.01951709120448295,-0.008769291483346061,-0.031179621031541895,-0.05010994457811556,0.026880968162851265,0.007599103857715167,-0.011951090217435253,0.005886190473400492,-0.0008704519366557106,0.0011228591994023086,0.003515230986046644,0.0011782439044661374,-0.0004902732269030728,0.0012040270536483177,-0.00018571999602997523,-0.00013361889362076238,0.00046953226611916445,0.00022391823465622298,-0.00012789800358828786,-7.187265457445015e-05,-7.289348044333042e-05,-1.892788108813121e-05,4.1312624684438434e-05,7.605331318520779e-08,2.9012388409441046e-07
-36.41243501036061,-0.5132967607148042,0.8608055599480893,0.40879984231714683,-0.0025066337475712582,0.010088916816674195,-0.04637014295680881,-0.01882450164630123,0.01583605292484501,-0.011003645847217245,0.026740887166264847,-0.0058859316964866015,-0.0005901605385695074,-0.010527970284918952,-0.0025258065796634754,-3.5603584000075856e-05,-0.0008095895335057174,0.0005889254963023285,-0.001513018020226294,-0.0009554736369272068,-0.0006159436212483148,7.91816667043497e-05,6.402320942495696e-05,-2.9917325648486138e-05,4.893122758844235e-05,-3.5171650721279424e-05,3.3000640629659316e-05,-9.475097164587238e-06,1.40297942093426e-05,1.5385502272958868e-06
-44.40894516702827,-2.219613962728727,-0.22892987014521526,-0.14743068335521697,-0.004809209397545773,0.10977823121468365,0.012879967160720427,0.07012707645341101,0.0017589582393686524,-0.005751304777755287,0.01796971301439569,-0.019364805524892826,-0.0003895377379639258,-0.005532593662524873,0.0008971353960511805,0.001452470567634803,0.0007873768292409382,-0.000649944841444247,-0.0001421227714575227,-0.0002102578211866042,-0.0005482677096834978,-0.0003175130674304634,-0.0001386989979997958,-4.3471682214259115e-05,6.61892267705003e-06,0.00010085073066992856,-1.760037997646597e-05,-3.496611643996476e-05,-2.6450410735556595e-05,3.2368008073830166e-06
-47.80038530429153,-3.3459906163107895,-0.694661113289426,-0.08478174417848368,-0.022789248506229272,0.011926070244898416,0.009257434137378697,0.05546002124377583,0.02232207184283291,0.0009002783442289472,0.005415863313374543,-0.013654477019532305,-0.0005970159781298353,0.003047444876445437,-0.005206721225225215,0.00014427691173374697,-8.210885863864671e-05,-0.0003004406682983772,-0.0009510497642326285,-6.390840424894916e-05,-0.00030615239543350074,0.0003710304781254539,0.00012322076271560923,-4.1830706259000316e-05,-1.2661994532572654e-05,-5.166085530386618e-05,-3.4162132870673356e-05,-1.5837107986607755e-05,-3.32739416830479e-05,4.904093951117131e-07
-37.704540456545075,-0.1197150506643005,0.44831618443722976,0.1913237658463735,0.03948081620023178,-0.07059742536716587,-0.1137138691742871,-0.04662750436054193,-0.023476683290954193,0.035424964019865585,0.0059141126043964634,-0.007689684306408967,0.00952981523631601,0.0019124984309912625,-0.0025626758420388383,0.0026701275414135494,0.001706847834591248,-0.00029324613576362397,0.0007821541966118814,0.00012223856721105362,-0.00017527589191156247,-9.888260524382856e-05,-9.791840582581698e-06,9.044103553846843e-05,5.5833117676139096e-05,5.562355342338238e-05,-2.6576994669087964e-05,-3.8688072757265185e-05,4.220433720624582e-06,-9.924081429425195e-07
-35.82258319051153,-0.7262922069899622,1.469942186783346,-0.012084102722265306,-0.2327028689238908,-0.042414987087961854,0.01991014363772385,0.027766669059195326,-0.006397771915115278,-0.004778569238185557,-0.006544983802461237,-0.029125285149472095,-0.004166613305992243,0.009207292461822598,0.009829363701538568,0.006722430201572445,0.0018057137434540505,-0.0010694205899871082,-0.003723357743806947,-0.0023069745185215645,-0.0003173937367162762,-0.00024339295772543158,0.0003330044159465369,-1.4960626607895216e-05,-7.744875379126128e-05,-7.200467181971358e-06,4.025151602994632e-05,8.091924520565098e-06,2.333524513968257e-05,-8.719251346094247e-07
-38.640640535157345,-0.3072680265654416,0.33142449355262404,0.28243285721186845,-0.031578184347651646,-0.13410735020108008,-0.028391775504710632,0.025310045860427354,0.006112470881455366,0.014903783724639323,-0.006918171471099643,-0.00920610495452239,0.003641569354148807,-0.0020418935172858976,-0.0028008693551750405,-0.0032033629181707616,-0.0021744331109677818,0.0011323619673350653,0.000581427152576352,0.00018482026050684907,-0.00022817295065648597,-1.9247012733698357e-05,0.0001367156460207465,2.9483065364736453e-05,-1.4832394367407582e-05,2.5568510650504815e-05,-1.6743375311424045e-05,2.942852717619365e-06,-2.227121511901654e-05,8.479794449619974e-07
-38.99387247374371,-0.5084411263447497,0.4453435359920912,0.076648256938076,-0.0162096192512576,-0.10007845554365007,0.056988487316277335,0.016757900226424087,-0.01838876427873634,0.007852685580624803,0.002323092243819353,-0.002086641320621872,0.007948717065726751,0.0010297009478202526,0.00021848109704332918,-0.0007124047378288805,-0.0014268989816235162,0.0018398430115783419,0.001871436080775982,-0.0004722497526774976,-0.00020724558423165448,-0.0001482261108391348,-4.886115956254446e-05,-2.396602887509431e-06,-1.1962766679699636e-05,5.1109234852922755e-05,-4.015381442757519e-06,1.3157559961526693e-05,-3.946452177975824e-05,-5.389915434641381e-07
-38.557012572311564,1.3303335673869934,-0.05909381543367149,-0.18340420348125366,0.11055319815880549,-0.06329122714913392,0.07699104139334292,0.030819405898909063,-0.007384407026663267,0.025449922589191935,0.019200846044226387,-0.0032950758478836,0.0045718469480800486,-8.537183990742636e-05,-0.0012746954696206765,0.0004518492521508716,-0.0006628503216130126,-0.0006122844417041879,0.0011276154982123063,-0.001016302150590953,-0.000578435560520313,0.00024313752252443994,-2.5801337893820622e-05,-6.890658087922155e-05,-7.103487694081056e-05,3.395778313271473e-05,-1.504276787150821e-05,-1.1940616557624712e-06,-3.0088613637084387e-05,-1.5510982434428937e-07
-39.53588036021767,1.4618517656755459,-0.41362285875755384,-0.014168697719618843,-0.010211153246290162,-0.072762456293699,0.0429744903452966,0.04519971162897561,0.005085281593426268,-0.002835850975335556,0.009200863393061193,-0.00792817694222811,0.0012054652054986565,-0.0007266917983069577,0.006624922156205018,-0.0021745769750976915,-0.002133819677415186,0.0032705598688721124,-0.002031024333759822,-0.0005433393145054147,-2.507612568141237e-05,0.000440233342486836,0.00010262850406245145,-2.544300544910534e-05,1.6957850998296635e-05,-8.82316417359135e-05,-2.9888971408692528e-05,-4.400658504184391e-05,-5.120488199627094e-05,9.521302346157236e-07
-41.70539244668075,-3.434921642092831,0.6648771925438006,0.3147044538975675,-0.07951540374886278,-0.05776560299467599,-0.09988066043157755,0.008807342191030416,0.025725074642098153,0.028263085702970883,0.0031969191600690074,0.0006380441256909709,-0.0033944146881145338,-0.00566955489226401,-0.0059190323963027565,0.0013027005247604323,-0.0020449126235370413,-0.0008831687677820117,0.0003887024125887886,-0.0005036220040668913,-0.00029942709204627995,3.339438602043591e-05,0.0002103762807742782,0.00015901294009967472,5.903771394886651e-05,-1.607634381503987e-05,-6.8880862385368245e-06,-4.828836659549427e-05,-4.4730249318057055e-06,9.315214976067827e-07
-39.592118865436724,1.3138137372180836,-0.015766277048300963,-0.329164069588855,-0.7438769806525776,-0.05893203116006537,0.10204891299221867,0.0343336823559206,-0.05603040247658001,0.005221932089304652,0.028471631313295723,0.007289376496963604,0.00914816241969412,-1.6423114595055916e-05,-0.002601346773055964,-0.003176839196003664,-0.0016724767928440935,-0.001866983053801857,0.0023177792283448273,-0.0004643362046526532,0.0003816946404039085,-0.0004531434607122095,-0.00033570026219671825,-7.947559931004404e-05,1.6274796330498495e-05,0.0002048493433273345,-4.244496273984519e-05,2.1646313153456256e-06,6.723530474684771e-05,-4.106835120803005e-07
-41.337954154765356,-1.7891418184135883,0.1862891831928399,0.2157787370538401,0.041772924925486156,0.0751212475288038,-0.0008200070848864432,0.002402072837920802,-0.012434451157863357,0.006462915697998584,0.011298239670338557,-0.007970705294542565,-0.00690401428134184,-0.0012659233218778058,-0.0011917572664792348,-0.001632190838006067,-0.0013532033227915872,0.0024607951236767216,9.172497138951272e-05,-0.0004354135789589151,-0.00030493182745982417,-0.00018282915281260425,0.00013416346591480502,3.000638292937474e-05,-2.3609181331786392e-05,9.562563471102078e-06,-2.842464288409443e-05,8.939446295812674e-06,8.831593422423641e-06,-1.7246800124682139e-06
-46.03948187063811,-2.8047862930632634,-0.5153546760662968,0.03270246547220967,0.019392282915289737,0.1018434627483945,-0.02032455631902079,0.052088400817771746,0.02099317958999174,-0.01700088520123657,0.015212121216381637,-0.003253341588970062,-0.002857042318697428,0.0008780615236848636,0.006530904949225619,-0.0019215037892316212,-0.0030022230372874926,-0.0007965393737995929,-0.0003725433698534584,-0.000658965871554997,-6.033255972271311e-06,-0.000280852433786961,-0.00013493957662250475,-1.6561485711374417e-05,-8.725692234664239e-06,8.844588132482722e-05,-2.7690870934621505e-05,-1.602998424490188e-05,-2.394779208635302e-05,3.2650863768530005e-08
-38.242321486835834,-0.39141189593851683,0.5924071136686669,0.18072780514797548,-0.38147795973722964,-0.044564791256360266,-0.026786529515224373,0.09112616825799602,0.01381475975573101,0.011554802701237758,-0.003639357109367296,-0.017398624550815204,-0.0007626892481514053,-0.00033481502829130205,0.005395231181013533,-0.0001623544165630506,-0.0022824793544748215,0.0011251082396276945,-0.0010450860303338751,0.000790838564401211,0.000487488665693339,-0.00020353775378089182,0.0002897531688334272,-1.1269827244104035e-05,-0.00014558756504733138,3.656041430472175e-05,7.872752540383683e-05,-4.5689830572213534e-05,-4.684961038852399e-05,-2.551401482494181e-06
-36.31087383601759,2.4708107156908796,-0.07764297648100713,0.0082952514135058,0.17488139435908043,-0.05197696985610576,-0.11190993472852076,0.11024320815721321,0.037987505682591335,0.006931823585167349,-0.0007895529436897957,0.00017959127309965828,0.014828833639138526,0.0014290962418502529,0.0032642723947789334,0.0005025031987395965,0.0030642165080852607,0.0009449191413253486,-0.0004638840668692823,0.0008439321714627874,0.0002650709247640559,7.344318450508642e-05,2.9023044452619272e-05,1.3601575380886414e-06,-2.4699321611084185e-05,0.00013969176989876814,2.079823254173234e-06,-9.535049379940757e-06,1.288543893373329e-05,-3.560140544226023e-07
-41.41491738849528,-0.8477278652011521,-0.1587596655919223,0.14473721164289152,-0.014003948693212562,0.18694247404437161,-0.0721160168641758,0.17806313214263536,0.00798095461355441,-0.0005756178572977943,0.00929663381872376,-0.008565498509825738,0.009440438456806526,-0.006141987615913323,0.008378335798751779,-0.0046157572871245636,0.006987551627663329,0.002419507095903865,-0.00013581483430489424,0.0006125468376372304,0.0006594291847154041,0.00018365608463129988,0.0001355292892534799,7.286942201143087e-05,6.912765616424657e-05,4.962896984968704e-05,1.9170890115706685e-05,8.242909355817326e-06,1.9551789559193098e-06,2.2510752934009536e-06
-42.38575887563659,-2.801812148938998,0.35794573407282626,0.1616438911877268,-0.011019601428921902,0.09493503975421386,-0.03281973777230466,0.1932631313681141,0.03800927198452986,0.006643406609311703,0.0017882223707470011,-0.008238459072886044,0.00525124380392313,-0.008515658853480788,0.0062291085597461745,-0.0032920640830956466,0.004615313526096331,0.0017502385693638853,0.000732833842643566,-6.261838419106842e-05,0.00015509026385603553,-0.000144742902980727,0.00020214217003299915,8.552448184065576e-05,1.3572644528364797e-05,1.5032178928538806e-05,3.585680063726092e-06,1.76786641350521e-05,8.567143425748028e-06,-4.174408214471162e-07
-41.99346660583436,-1.4466377846561211,0.24654411753213118,-0.34231281724167956,0.06086687718711128,-0.041066710449381406,0.02002834696356452,0.16284492991369795,0.031146488652515365,0.0012428126316472042,0.004137883814360661,0.016474523081767826,0.004418612922665403,0.0005241604670493573,0.001086514443652654,-0.0011830382151306101,0.0001588766809902375,0.0010640248408285648,0.0020511377906423443,0.000337765985665434,3.0012514838643902e-05,-7.776277141068272e-05,-0.00015381537074899817,-4.743020532625352e-05,-5.138373221524408e-05,3.1714973285828e-05,-1.2722175793156605e-05,-2.0803767212528436e-05,-2.152041160454589e-05,-6.361479793455568e-07
-41.29188542455626,-2.4902046029704064,0.4295761900530695,0.348174605065224,-0.07482925041239422,-0.13272149427681834,-0.05022764942477942,0.07757989308822676,0.03993446784159319,0.03727629349953375,-0.0072015171910208686,-0.01018657355708424,0.0008275711948128747,-0.006171125088142571,-0.007743711878608507,-0.004814538096461597,-0.003182230284586647,0.0006774943782934975,0.0005729587518185417,9.384819804708375e-05,-0.0003725684871861273,-6.177816189893755e-05,0.00045195512493276805,0.0002113527846678543,3.2756444334644453e-06,5.707524918868605e-05,-2.9196477495340644e-05,-8.667620549527252e-06,-2.5047376838937868e-05,-1.9087257105711093e-06
-39.20968666714256,-0.7554257662964949,0.290940888085809,0.3297685099914391,-0.08677790449813899,0.03332706720573013,-0.055534843317501456,0.08300440643508224,0.01843598051108296,0.022415475843136485,0.007579743467923344,-0.010276293898797324,0.0014719660381841831,-0.004795565477239342,0.0005091462199647523,-0.003247434181932406,-0.0018628483686001485,0.0013758240012906986,2.422370363957359e-05,0.0002086119410318226,0.00022326097452801566,0.0001054657370536855,0.00030971734479289746,0.00010835165956525452,-3.933465767673137e-06,4.610240364979734e-05,8.794846036343133e-06,-4.811039435692351e-07,-1.83314406252602e-05,-1.7057670750778135e-06
-37.21676827248765,0.21152121118521622,0.566262412042576,0.04943070688837929,0.0938904674587482,-0.03170150489245397,-0.07602323212805598,0.09800345159921058,0.03003751828349959,0.011808416510425366,0.0034539678381505937,-0.005369092277077256,0.008618856229872494,-0.0022697604905665765,0.004658549255738605,0.0029744511412316535,0.0016593411148090723,-0.0008162052523037341,0.0012992986303283416,-0.0001820510267958894,-0.00018915308524666382,3.8883757269404505e-05,-0.00015010121157364866,-1.4266295436259978e-05,6.748725688266496e-06,1.8669169433754116e-05,-7.58200075098461e-06,-7.700955078433118e-07,8.371758482219589e-08,8.371408206177758e-07
-37.95170607437756,1.9348270130743754,-0.152648081199256,-0.07802690048322222,-0.07844367283939806,-0.07932866462868986,0.037590662965575075,0.10645650984479338,0.02351359439985246,0.007754632279473303,0.0008047504395313038,-0.004057978187001851,0.01163132410868799,-0.0005672579404675035,-0.0016361847330502697,0.0017231399826239222,-0.0015327945559568085,0.002084884349983762,0.0008528946902073281,0.00013103216882419676,0.00044249709765723416,0.0006789878550385055,0.0001644653606386524,-8.44595912201244e-05,-1.623236442668e-05,-3.849842295318076e-05,-1.8146964443672028e-05,2.3770496074448265e-05,-4.4619213869985985e-05,-9.046180707928965e-07
-37.183012063865114,-0.1772086251605713,0.7959513169299566,-0.037348761793903035,0.10248679437395487,-0.021071692807439903,0.03883914636987858,0.12301024920857362,-0.010044362109610952,0.021973951748952617,0.01424786748433276,-0.0006078668701749321,0.012682182774920264,0.003785500373584764,-0.002323625254104813,0.0004481949417732373,0.001515566472629342,0.0031005861257425212,0.0026516874125557836,-0.0002943841272047246,-0.000247830553822605,-0.00011008493746719214,0.00023624053966681994,-2.587551048832177e-06,3.8387412540417046e-05,7.041514307409467e-06,1.5339266088301071e-06,4.009439834538823e-05,-1.4059100229321349e-05,3.208506978043413e-07
-39.448863674647214,1.3700209789432833,-0.4066862603670506,0.04467570345455846,0.14271166491765797,-0.08562415753598808,0.024483983904683985,0.1391466541360043,0.01847228644590107,0.021315010998684193,-0.0006548181673650376,-0.0027238499473409513,0.014368773143035397,0.0019202172754003801,-0.0015634745728228116,-0.0021944198288156936,0.00227743836918326,-0.0010334251329711997,0.0011509254008649412,-0.0014466801968553683,-0.00040871949085318946,0.00045748473877923904,5.784697869955235e-05,3.636186812227647e-05,5.681639330238979e-05,0.00018609712767599622,-9.73016595337005e-06,3.508765653772359e-05,-2.218339429885241e-05,-6.799165830178763e-07
-44.89419694036618,-1.9634216460670744,-0.5106639358959226,-0.07500688997007414,0.04164822927515755,0.06713487881260434,-0.024374304254645936,0.10860118126122392,0.0233463631641916,-0.001562289977231072,0.013320272184201051,0.0009057603004951081,0.007415209351890603,0.0042686628336640765,-0.002793849883899784,0.0006381352172924483,0.0005141367075433866,0.0006507386889801421,0.00026120629281915395,-0.00031824146852828564,0.00022437450705151157,5.036104148778657e-06,-7.690519158406508e-05,3.965518685183568e-05,1.1124319062695385e-05,0.00011522784164134388,7.512324052885765e-06,-1.1891851693317228e-05,7.523745475098469e-06,2.095080136515963e-06
-47.203124067712224,-3.8257436310105177,-0.322020236469232,-0.17388378672466095,-0.04131772152334406,0.10344520394664238,-0.019803687151404032,0.07714650762234061,0.015652746986501594,-0.010199356319633222,0.004792799492169824,-0.00036717538096035443,0.0006265525733983395,-0.004519344050348531,0.004089537989423132,0.0023039636239969227,-0.0026526240897254256,0.0012557122661117236,-0.0005556267318979311,0.00027141145790267763,7.272435192778081e-05,1.7578128634541695e-05,2.4725451452588916e-05,-7.470379746016802e-05,1.2394742338268572e-05,2.8265623406239653e-05,-1.2250793672823892e-05,-1.0870878008917684e-05,-1.5153439127363189e-05,7.940037024573073e-08
-44.79445698372672,-3.7372961430850826,-0.03006333329999967,0.2690231416659276,0.0058317750329100375,0.028474201324756712,-0.12794756086711084,0.04713461381622944,0.020718402386927983,0.038463622162630266,0.008369370818473576,-0.0012563013984487632,0.0009467551331865152,0.001002015864743361,-0.002218924301105552,-0.004552478904720087,-0.0035126160470827913,4.102370928667376e-05,-3.9783807641090496e-05,0.00023935604774910171,-8.278376429729179e-05,0.00018876329955156587,0.0001942976899014092,0.00010652225508382338,0.000114943833693486,0.00012406015617664088,-6.21263684693786e-05,-2.6380073332187312e-05,1.9765998775962036e-05,-2.0004741561195236e-06
-33.27083974571629,3.7574938066331525,0.3531927010159718,0.037308745555045236,-0.35001556408642404,-0.0034642310294230013,-0.008840503173641979,0.12549608046542213,0.024044416564857948,0.009219200841441937,0.015286224564599774,-0.010452182005288047,0.01002566454439459,9.269098251299796e-05,0.007603850314019026,-0.0006675700159714263,-0.0008217433465793466,-0.0017410581878960919,0.001307892537540147,0.000496680227651122,0.0006207574991154982,-9.875443455823085e-05,-0.0002385268312159303,-7.278182023771658e-05,-0.00010068574917912072,-2.078163066005289e-05,4.32643370047662e-05,2.8204661704006407e-05,-2.6705945511456198e-05,-3.133012754340884e-06
-46.39226404353478,-3.2871228954260485,-0.39911994873058826,-0.061830688107512945,0.0531612249853198,0.12833381555516826,-0.050738886186913384,0.18181436174215343,0.046574407635173995,-0.012575264057356613,0.008701424055003,-0.010443605765235063,0.006022904481331028,-0.003412626308029664,0.001656061755975669,-0.00208277026946116,0.005584932358967786,0.0009306983568344248,8.564440871609884e-06,0.000251574641379888,2.460483917925336e-05,0.0002959369332680644,0.00015938723501999789,2.238964877798277e-06,2.4179032219957967e-05,5.389287949469291e-05,-6.698363977913836e-06,-1.2263836650826814e-06,-3.4571724450401333e-06,2.228600816958817e-06
-40.00358031030168,-2.565469237063642,0.9045517207435596,0.18754277724661408,-0.09364856855247557,0.0014623277069945068,-0.0046787730269989055,0.14558076928858651,0.020368607917437737,0.0033824335694741738,0.003007731717785478,-0.0018381357064412224,0.008118575822636845,-0.002783609553062634,-0.0018116147667018537,0.0013324194905529282,0.002198082855466062,0.0022930669518662636,0.0009220049108939987,-0.0007320231469477574,0.00017029183130919944,-0.00041634526117693217,0.00020019338600892465,0.0001664014230130095,-2.78604220379754e-05,7.3984223070215425e-06,2.6326334551443167e-05,-8.419438358826021e-06,-2.2969667979142576e-05,-1.336762230925134e-06
-36.26753572394821,1.502835580778839,0.3305921317840199,0.18269336174307446,-0.4609511598370254,-0.030923645299978122,-0.022078955929111414,0.10250113649293219,0.004558262072781182,0.048483275903685875,-0.007272463124086944,-0.028827828259909753,0.005044633374098859,-0.0003950982967252877,0.0008783432636214047,0.0006754643954635817,-0.0029089548677757736,0.0037084472841582058,-0.0009935454685566576,0.0017565846170169012,0.0011148411226278273,0.000258378367858798,0.0005859547697560877,-4.276333799970358e-06,-7.498496846283015e-05,3.8272238665040166e-05,9.711103682422093e-05,-2.942106204550738e-05,-8.289397742403634e-05,-2.541628122936778e-06
-40.312618138692315,-2.1532907993726917,0.45285883485229655,0.39028828075261235,-0.016127383224675544,-0.0486230861841103,-0.18915252475202618,0.06185352225401626,0.058766390916211046,0.005783240054044093,0.006795734306513414,-0.0032026060992105753,0.01039481229357791,-0.00692894517879358,-0.006255744856072035,-0.0019742601085206736,0.00013361902343029194,-0.0005566929424440661,0.0003915580085571588,0.0009040737203675353,-0.0002139410488908848,-0.00013560524414594967,-0.00014380612719608373,8.055947447582785e-05,0.0001901904111408676,0.00012363694205477438,6.342440935421679e-06,-5.826589400310222e-05,-1.964897012510417e-06,1.4587116251058105e-06
-39.34728357868065,-3.207579089486394,1.1006952017159592,0.3669681869635472,0.025574086123846745,-0.017391351147065564,-0.10046599477476773,0.03340135847266549,0.015118505297697428,0.02806572193053848,0.02540645099192603,0.025852111653754117,0.007099306528926836,-0.014575402844180024,-0.004062665220000178,0.003937044804795159,-0.0018956226640626744,0.0019081523406510208,-0.0005853804585545659,-0.002955639852272014,-0.0006013012192265426,-4.492649529142505e-05,0.000347863139020388,0.000269435225465327,0.00024053556354041255,-0.00011015416860098211,-1.453381957836513e-05,-4.896398507881927e-05,8.904072930203888e-06,5.273965785017171e-06
-38.276740160229956,1.1436360692950258,-0.017651844798866362,-0.11055193700393343,0.1522447506921811,-0.07845033740746317,-0.05323222901621038,0.018748737617243983,0.014265042936571593,0.022004854136283825,0.006494852939301938,-0.0012245195868190821,0.007542201081271439,0.0027919052512758807,0.00033096865680205746,0.002705873821051594,-0.0012390054035250379,0.0012030297795013085,-0.0005935449075877292,0.00014031664138370947,-0.00013087944359208402,0.0001897096064155093,4.102269634456556e-05,-0.00011512203739251206,-7.958657362814395e-05,4.039203063685263e-05,-2.5663427353178325e-05,-2.2687384225623646e-05,2.962617976258445e-06,-1.7239700198992169e-06
-34.34904815068535,2.8730327231902675,0.17526843561058086,0.3702361711708968,0.01146607948521879,-0.13491642393188163,-0.004815804819442522,0.04613793663334891,0.04258991887321443,-0.00011755124330655752,0.00809724997502499,-0.008371257247713287,-0.0034763272823770635,0.001291777078225113,-0.0005472194958868596,-0.0074543970999558125,-0.0029596248185541647,0.002834519836499834,-0.00040088537287054425,-0.0001293472448402902,-8.516853859409196e-06,-0.00025299215658964116,-0.00013130202182299377,-8.830845147710118e-05,-2.3254781468460233e-05,4.8741705615731256e-05,-7.481992630445118e-06,-1.5629376396931448e-05,-3.284651787992817e-05,-2.0505522937925556e-06
-36.8789037454011,1.044358511717502,0.31084255427530977,0.21132646446025655,0.02163588135491917,-0.06925055214416433,0.0031382100234568456,0.1435765946850752,0.01993203585781747,0.009751502613628033,0.009293217582517596,-0.004267533853331981,0.010970194947754511,-0.004578234754716365,0.007072231836763097,-0.006479269079753213,0.0013528236067024163,0.002403793941306718,0.0005597504773721901,-0.0004623355254531445,-2.148125363147337e-05,-3.419869751145143e-05,2.6265434160430453e-05,-6.501836226996982e-06,2.390951722885556e-05,2.037321349068294e-05,3.0072814122269548e-06,2.1326510557058306e-05,-3.2752240437607975e-05,4.787576559017983e-07
-39.71225197676526,1.0884893088980194,-0.29203943216158634,-0.16089049194179914,0.08052007688109422,-0.05842347505783085,-0.01355563463349426,0.10864357836133179,0.015171436502163585,0.025057293147641976,0.00688940618340958,0.0003971473349926993,-0.004174751043020993,0.003321305442578633,-0.005115668641864463,0.00019886148706471226,0.002671238379917699,0.003434020633475657,-0.0017953417432146406,0.00010032600414642715,-0.00011626555691433641,0.00030539095770366556,0.0001031236096792153,-9.86348982607605e-05,5.148649649749679e-05,7.3089538995528885e-06,-4.670582485756919e-07,-4.6113489897105315e-05,2.1005090475585208e-06,-2.1706146799931707e-06
-39.2257293858777,-1.6250009352744086,0.6653730354764078,0.2646810691643656,-0.1309480347076734,-0.05349477226974736,-0.009970943374663867,0.03331099849469716,0.00566341134508378,0.028411454648153724,0.005936892678073412,-0.013641121129343228,0.007230199081818624,-0.004323277918645562,-0.0036814527610060307,0.0009235646456531567,-0.0026676878912966105,0.001557106481877106,0.0005736786312170295,-0.0005580208089808418,-4.981957177631053e-05,-0.00037611159253970805,0.000372307127179703,0.00022661970857278772,-4.866409816809142e-05,6.278210486748522e-05,1.6563974629363916e-05,-1.3674363496641537e-05,-4.01412480774904e-05,-6.129004767028753e-07
-37.02489915530927,2.320797391328351,-0.12241538980026058,-0.05755357384934132,0.06722864125283723,-0.05176342587908316,0.03633869153625172,0.04895641028766042,-0.0032504330371894183,0.013731954874477068,0.027056856756667424,-0.0028145660830401955,0.009857917888494027,0.0038098152182765668,0.001881913368501076,-0.001360583327834646,-0.00095835502646136,0.0026683137327559374,-0.0001091777902225068,-0.0006789483566920702,-2.644166428528884e-05,-0.00011673631903767803,-0.0001912968134476818,-3.1067714148439995e-05,-7.075712647219556e-06,8.963320901581917e-05,-9.15643407549465e-06,-2.0758380977824975e-05,-3.7917299451578344e-05,1.138183282929175e-06
-39.32805963888776,1.0364108411029112,-0.21580620719563662,-0.13358020455755057,0.19274996655043944,-0.02219627658726958,-0.04464325153856665,0.05514450486917457,0.010070799398391886,0.0020800748050725454,0.009566977601409404,-0.010320923266930413,0.009010077020316764,-0.003615948958342491,0.0015965234930369792,0.0014914612415897204,0.0014144277953583278,-0.0010393312930623553,-0.0010020631350041226,-0.00016420942203435217,-0.000643595083414965,-0.00027490874145871927,-9.676937100163184e-05,-2.0257758822365182e-05,-7.587499902352745e-05,0.00015226010910129918,-9.582904531393375e-07,-3.793754890109973e-05,-1.188409829082543e-05,2.631270595224198e-06
-34.668972859996586,-3.2911558848557254,2.5755389302855933,0.346507006139979,0.26176535954690605,-0.09187674022778392,0.3355531278069939,0.14157035311197796,0.005856763142297288,0.003434715703341918,0.03127333810828086,0.019155319021669042,0.020806093534640958,-0.004911002253036826,-0.009327493756782313,0.007160609743082392,0.001726475550206162,-0.0032245609529387097,-0.006107479494229322,-0.005032370824904168,4.169147528907049e-05,-0.0010490853455788025,0.00024249276179313324,0.0005817723808567737,-8.069250284648206e-05,-7.524686052742443e-05,-2.8191620830319504e-05,3.5371231508744606e-05,-5.3034255156307216e-05,1.9896615607325053e-06
-40.24175854424747,-4.201878539983889,1.4962962643714135,0.2179578701398902,-0.054247446019946965,-0.11112563542792996,0.04866845893185194,0.0916873678181488,0.033293854515337104,0.006874962328077829,0.011669000929768197,0.01266745177854871,-0.002004807128362714,-0.006032860884003081,0.0010082267193017354,0.004396989240268819,0.00016657305607612572,-0.0008865959771413138,-0.0019561570628470336,-0.0036105802355802007,-0.00044960581236800967,-6.44738569134639e-05,6.662560623647056e-05,0.0001962863148215291,-2.7460851355713508e-05,-4.3551135690145186e-05,-2.0188821974321668e-06,-5.607254505573139e-05,-1.9115125958915663e-05,-2.0303256216605772e-06
-35.73761329141701,2.998363041843432,-0.07807844054862723,-0.11369929074780245,0.23773623515794895,0.03994837462520873,-0.06280462318039791,0.07687593593276865,-0.004209504293369427,0.0125245901124598,0.02010385266247251,0.0004894108255384979,0.0016898764972279425,-0.004507038472962619,0.00925855971963598,-0.0014537873780697747,0.0016602196542019683,0.0023663539983981535,-0.0026734445707634158,6.48433525592667e-05,-0.0003608584703584809,3.598026108774244e-05,0.00019548564059460407,-0.00011214278295181595,-1.6511822190099588e-05,-1.8504072160851765e-05,-1.2034465690179678e-05,-2.5402043365291926e-05,9.785434779081317e-06,-1.7119097510498338e-07
-38.89923954021261,-1.6535881523988432,0.7151735730767876,0.3202406713569524,-0.08452208333569854,-0.052974672517827545,-0.06301166753041512,0.05461444727948594,0.02526351676287046,0.02602296275187996,0.008132481283080733,-0.004696527415054073,-0.002948523249642042,-0.00311949510563356,-0.005955603520771843,0.00014315523604700064,-0.0007080225986853432,0.0019680485795189203,-0.0004014863212607157,-0.0005049387207968175,-0.00012145997924029801,-0.00030705110344054766,0.0003713973813939437,0.00021380032481066084,1.570174216522486e-05,1.3090408961766023e-05,1.674468209950786e-05,-4.339041029814899e-05,-6.043248488962644e-06,-1.470630757837009e-06
-40.27495347701697,-1.5518868673762638,0.39507956934751765,0.21292288925153782,-0.061953329231060755,-0.10843559046678124,-0.0412444790439987,-0.008297644907668279,-0.003995487782354734,0.01894633219923143,-0.006008724423219281,-0.0096014190888605,0.00605883617295745,-0.0011401696165348754,-0.003064968037469248,-0.0004782221447071793,-0.001471346799273276,0.001826497382305004,0.0004827748825593804,0.0002762527762849368,-0.00010092783547622227,-0.00010992006344672798,0.0001843855637700999,8.352478509064e-05,-1.686796647992665e-05,1.995687218403448e-05,-2.1084182925097667e-05,-1.6196012951550892e-05,-2.5354793695246518e-05,-1.392181424481897e-06
-35.2449825937288,-0.6422383932701929,1.83738347889829,-0.7535598714497033,0.6573305402516131,0.23968461418576295,0.08490688721747523,0.008020943910650826,-0.06129008988528249,0.03211910007401847,-0.02464902572069611,-0.04051397644212806,-0.015341596388214399,0.007445864319521602,0.005242308307873303,-0.014871569096781143,-0.006947841758354879,-0.0028545896792224346,0.0011025508551552063,0.0010594044942522226,-0.00010898110413260955,3.697467940948194e-06,5.493842115098422e-05,-8.050840855996461e-05,4.923253397616576e-05,7.146582732085329e-05,0.00020562883894750098,-1.0093498905503583e-05,2.1957982877284034e-05,-1.6344210769796535e-06
-34.378462242020674,2.953253681567589,0.1741389468029164,0.11245980960125679,0.16192541762373977,-0.05987154730268255,-0.12221316040152337,0.014440122984209415,0.03742905011736634,0.007214399094495806,0.009142662906229311,-0.006932776819874472,0.0025214700276343887,0.003216066423695925,0.0041851631180283904,0.002248759398180572,3.060562656894792e-05,-0.0013296985868881301,-0.00043458421373912813,0.0007023449307008139,-0.00018717807050236092,-0.00018967293197257398,-0.0001907839843609706,-7.685602352089357e-06,-4.075860563382237e-05,0.00010413360779455949,-2.5978374466095408e-05,-2.187637044945963e-05,-1.0775579114117444e-05,-1.3720817790130018e-06
-38.012697518963776,1.8199454481036301,-0.10291155396080044,-0.19743140482949081,-0.13561240789433895,-0.048641872585352026,-0.043662648738020726,0.0932423215133651,0.015384178895786752,0.0413258513222058,0.008819587422093671,-0.012457690984455106,0.004994533317530028,-0.005009522188455802,-0.0015820165316651454,0.0019811813320401157,-0.0003565487444443014,-0.0005248885852792566,-0.0012592865598976927,0.0008498466732579533,0.0003151609923578798,4.3865474846578725e-05,-1.6293159582110535e-05,-0.00024708371622446883,8.812385853198236e-05,8.763387592278583e-05,2.2834785272001708e-06,-2.4832264438884634e-05,-2.946780899699084e-05,2.5986796081005648e-06
-39.48695681928622,-1.9504724970896938,0.7160021730202041,0.30521186369219105,-0.14066959032591078,-0.020344984958372402,-0.020044672995864148,0.0756937424477348,0.045200081566841376,0.009157453437515988,0.007788680269569844,-0.0262544534915284,6.300396734592014e-05,-0.008522256046802743,-0.0009327183772435601,0.00032461273675887207,-0.0011240151390729534,0.00019216694294225747,-0.0008586455387799961,-0.0004347807452217209,-0.00020475902127949658,-0.00020466892787183397,0.000397889576183546,0.00013565868693018158,-0.00012399579176534703,1.1409286216654408e-05,2.139558416892781e-05,-2.6057564321855404e-05,-1.6927033951691358e-06,-6.879533114428994e-08
-40.5578170941609,1.190550056560282,-0.44304054915685875,-0.2524005272980183,-0.20188002440561875,0.0032329309010297462,-0.023514768049570804,0.12214214195954244,0.023350747916875185,0.016855305402545862,0.01630769067889716,-0.019844564507223324,-0.0020218397988606943,-0.01340792438279603,-0.004629634619125417,2.9274962197201518e-05,0.0030755205809183256,-0.0037037405745253783,-0.0018998019465997034,0.0008979664135504897,-0.0002990622698455408,-0.00011038699832476357,0.0001242466053596089,-0.00011881489882363262,0.00012707322261855467,4.7769860542516975e-05,-8.709811574850429e-06,-1.3363546806895492e-05,-3.2536962860839896e-05,9.998361014287894e-08
-46.20497027043079,-2.451941460572222,-0.6697346162268613,-6.0711922383874035e-05,-0.02118012955725212,0.10155652384466599,-0.016544937402731268,0.13553943447931924,0.024415450706719265,0.0013742573857840393,0.012892428785394813,-0.007019475544844944,0.0012696351271835559,0.0033709271468083408,-0.001888614996885215,-0.0015356623913530536,0.002397746981959687,-0.0011276751255257789,0.00024125066244192695,-0.0005749910508101198,0.00023402159989090895,0.0004082327444504837,0.00011414522382443377,4.116941157565124e-05,1.908515106128068e-05,5.8293451206632494e-05,-1.0031525107423185e-05,2.0874696336926932e-05,-2.4706347720387884e-05,2.4245890192641677e-06
-45.18220078492051,-2.182388064389423,-0.4254857355627283,-0.20607042794357922,-0.029268012506522913,0.04323933884865073,-0.02414844030541389,0.025996167760118878,0.001991226110398906,0.006831167401595736,0.010853135192941314,-0.002081901112671012,-0.0071268955960862215,0.0038131020645438994,-0.007401424718254755,0.0023333227233702115,0.0017415919695294014,0.0004753260965658812,-0.0008336976517480588,0.0005569291896206705,4.5138918646585316e-05,8.766359656995199e-06,9.80120331946019e-06,-6.45764260747247e-05,-2.2737923324958665e-05,-1.523028228923671e-05,-5.754958088097268e-06,-2.9768079564734033e-05,-1.4241737422184827e-05,-1.3230728835616064e-06
-40.33453700930093,-2.2297303498677365,0.8006953629488767,-0.023800960914115977,-0.21011910981946555,-0.010339131728489964,-0.022582736181182252,-0.05754163447838716,-0.024279659682862373,0.007943822870527254,0.007113090205410103,-0.01571460694902854,0.001105432225516051,0.002606989602423647,0.005892689275263566,0.0031353670075711187,0.002306268239169945,-0.0013480750746916062,1.997790208657624e-05,-0.0003055220833684654,-6.568211613591053e-06,-0.00011403733518872823,4.577594891619261e-05,-3.477778259725923e-05,-2.464552326283873e-05,7.434528945071636e-05,3.047628045598666e-05,3.997082505937303e-06,-1.9599350292669637e-05,1.0278970104988409e-06
-44.60322307497369,-1.9318826097889126,-0.5553641234734492,0.1033134822199964,0.08814224281879474,0.14813416182922556,-0.01139444484668079,-0.0568753755456484,-0.046470979485245666,-0.0067779492678342245,0.014224879768930299,-0.009960009194741319,-0.0055746719132374195,0.0011740736192115547,0.004499548257366607,-0.0033767829501025032,0.0014127517331594616,0.0014232518504111204,-0.001711525330471887,-0.0005496040254892212,-0.0002470439452832146,-0.00013254819467149758,-5.711931588950433e-05,5.17513373649718e-05,9.51003385729807e-06,4.51187699145201e-05,-4.482884205223854e-05,-3.860355443718621e-05,1.3623711583679584e-05,1.8585606205482708e-06
-41.478444746933704,0.6415387741803263,-0.6280810143563476,0.05526644847931393,0.11888121389598856,-0.13092972282143106,0.05398035487099036,-0.023742320480121697,-0.015220120737858755,-0.0008556302026695587,-0.003435658768108754,-0.005348209758856444,0.006331089320109848,0.006462806598193311,-0.001599619887580388,-0.0036307066206551024,0.0014782944470614235,-0.0017428433481049316,8.655901954055259e-05,-0.0015461690956500857,-0.0005548659942341382,0.00020501823180938626,2.573805843677869e-05,-4.6213726728440154e-05,-5.9000805815769286e-05,-9.302638244179218e-05,-3.8269487906331374e-05,2.6344960909900756e-05,-4.059507407602912e-05,2.7250227328325445e-06
-41.62888459850867,-3.0096276370526773,0.528536323502452,0.2813628295516679,-0.036926946147403404,-0.17092528036445917,-0.12665682436366846,-0.13635973698756543,0.01194576130708251,0.0017322544266676265,-0.0020025315633995693,0.00026157097796396505,0.00646716629635565,-0.004491680510386591,-0.002301371849895032,-0.0035776205713375134,0.004577028345971256,-0.0010334651076671694,0.00018728643458446604,0.0009449949794329375,-0.0003413575387027093,-2.28519218454167e-05,-0.00017856905148560325,2.8276171332732403e-05,0.00010729874742779614,-5.459094734850444e-05,-4.367587749044228e-06,-6.0758436238494015e-05,-1.0603111066421224e-05,3.2898646067684806e-06
-44.50240042394579,-3.6082642669862346,0.1283237973808961,0.1403936693054766,-0.05148714945066762,0.041516283556229,-0.013553283037449858,-0.13847764998206827,-0.08686290629741616,0.012880771025907602,0.0036427959463144633,-0.00383262092690751,0.002680620180108884,-0.0038887685535997133,0.008327295946280119,-0.00743200792663821,0.008846949399190217,3.95881092886013e-05,0.00018855040468301965,0.00041040068281939196,2.783885704393595e-05,-0.0003014430011853996,3.5216552130211976e-06,8.944115542230018e-05,-1.626369304741256e-05,-7.778471107503914e-05,-3.5232427310578935e-06,2.5625345156106667e-06,-1.2563487950227915e-05,8.933076979475576e-07
-36.10080315690111,2.475937273675877,-0.008415907119356584,-0.08524674650115316,0.22879301875683683,-0.019913326514936252,-0.0330480206528757,-0.148294122753969,-0.02321479880471582,-0.007624739726942281,0.014417760499320954,-0.0056813689380634845,0.009468077844535744,-0.0012987789564345808,0.0063091088484725725,-0.0004013008306261464,0.0048765924507264856,-0.00028430042864748494,-0.0007321176563762784,0.000608165490241361,-0.0002929236228153637,0.00013930754595928432,0.0001129685048896595,-2.1974758726040224e-06,-0.00011325181173750653,2.801203798745874e-05,-3.974059935911744e-06,2.3255514909139517e-06,7.075419242514432e-06,3.07305257417742e-06
-39.25047570462477,0.0033714732798643668,0.24002865991059585,-0.2201948902823234,0.1021302591119766,-0.01531658481341525,0.036797007916224624,-0.08550409049077932,-0.0411328510067795,0.01293707754979011,0.017947105595871305,0.0008745834446547994,0.012354611382465202,0.0010891019292483693,0.0012025977483719763,-0.000998788229750527,0.0037484992305851367,0.001630547512283732,0.0013583484152244459,0.00035926688611302704,-5.78353304921291e-05,-7.567909728366474e-05,-5.339903121514482e-05,-0.00011637301668198285,-7.652120102992771e-05,-3.450809965511201e-05,5.328891904745738e-06,1.0017914334449932e-05,-6.971030410753041e-06,2.658918115609939e-06
-50.651842591377495,-4.9714766315208365,-0.8779178363620289,-0.038514354492593376,0.03190328996338175,0.11371874824208585,0.061564676637202255,-0.11042902009071916,-0.02010318464625907,-0.006410102236329789,0.009307875098009127,-0.0018901600922621698,0.0061249394364967175,0.004677995447162239,-0.0019294227136463138,-0.004456233124431397,0.006969712124025428,-0.0009764347365923731,0.0005821181901331013,-0.0009878292520964515,3.4570373837150664e-05,-0.00015897948115207146,-0.00023378379912686656,2.501433061350594e-05,-6.42860027713812e-05,-0.0002351632386454704,-1.26413482399439e-05,2.004335861158569e-05,1.3055227461638156e-05,-2.922276447506243e-06
-40.6694863531144,-2.1651241756076836,0.54143215624732,0.2303632362844899,-0.07248310522638525,0.0011079989080677742,0.019963679450173463,-0.12227905504471313,-0.05581506247974197,0.008745155984254847,0.00789182646995047,-0.006608513334521672,-0.007272775931233753,-0.004161106916073973,0.005303244244363215,-0.00562574419543164,0.006870807800888534,0.00014746831669355025,-0.0003910839727102379,-9.115014759693498e-05,-0.0001438712178909007,5.93835230055966e-06,0.00031518556033069704,8.550137900792207e-05,-3.124521448220765e-05,-3.7033353612411507e-06,3.115912253489174e-05,3.246994291372336e-05,-3.338028409065382e-06,2.8023726916053298e-06
-44.02529845180464,-1.2874132677859857,-0.6590284670245503,0.1130393238675528,0.11343921639193051,0.12112379308051589,-0.024325995711603966,-0.04837101865201254,-0.014417132221109099,-0.02056053995896426,0.0173482372470631,-0.007820740326902154,-0.0028031160704690104,0.005212388206949673,0.0034518015491884937,-0.003064358040719634,-0.00018621263576016066,-5.4924412391448414e-05,-0.001060427694772312,-0.000864128388373079,-9.03061665180722e-06,0.00013621473798867492,0.00011283009341930959,2.334190988177774e-05,-4.16807440010732e-05,8.367489598490572e-08,-5.431024095394236e-05,-2.3164494619579998e-05,-2.943674191856973e-06,1.163235003800858e-06
-38.24406772838681,0.40053215762250516,0.157295053381378,0.09759819553873593,0.11830195517296234,-0.13277312436571928,-0.09267028975724904,-0.039375604954162785,0.02710041585043495,0.023046100185437204,0.004018924080525361,-0.005602996488637777,0.012656753564379437,0.0032644099664757916,0.001183605487777433,0.0018958178329433247,-0.0023916241254145626,-0.0010867398167224397,0.0005417640676054192,0.0002672766261233072,-0.00024871617703433864,0.00012206087647637225,-0.00013576931060830345,-5.8807860683636714e-05,-4.83086430739205e-05,2.678591286463616e-05,-5.154494297564955e-05,-1.6495601853955342e-05,-1.1941386284156481e-05,9.312074711812435e-07
-51.743002107687644,-5.318948448212266,-1.0606039851299272,0.06694589676178374,0.033605239029850395,0.1037423739982683,-0.03846356919747201,-0.03002487312789182,-0.004486594986665375,-0.009329512173861486,-0.008102533551022651,-0.010268545023170825,0.008969807635793955,0.006972189883275947,-0.004478843935624149,-0.0019704882094537224,-0.0016205116120865297,-0.0036572584786538505,-0.0007233363082205338,-0.00019155971345722039,-0.000185363849211794,0.00014820220581595293,0.00020389637535516797,-6.667096008639343e-05,-4.4198635991050974e-05,-0.00013604574320334612,-1.3947943595841168e-05,7.480203686340264e-05,1.53489870016531e-06,-2.018770949867288e-06
-43.34674044718662,-0.8936161857563011,-0.5793515367104246,-0.06033192644023469,0.09242247669942542,-0.0649455881797421,-0.06519135544414677,-0.04825877457237402,0.0009341267469668011,0.02746707460803471,0.0014680731892120584,-0.010917713357683446,0.010926372712507758,0.00716691495176257,-0.004002769168629423,0.0009854940558337354,0.0010123104824182434,-0.0008249303136489972,-0.002344058252554476,0.0007681267232942655,-0.00013262642954880535,-1.6895366612298435e-05,-0.00014515516628974085,-6.79756637564625e-05,-7.421997081058116e-05,3.2168994432769706e-05,-4.749856475282708e-05,-5.991256802552083e-05,2.367420757732718e-05,-1.5952444542904134e-06
-39.81038892384657,-2.152436058025909,0.7522481778101433,0.2749729516919676,-0.06926348272102818,-0.008223977973773059,0.02071231497213397,-0.02227070788276981,-0.03132130851761047,0.0014483586556349362,0.011239839473486123,-0.011704867904762866,0.0004917210548580963,-0.006484699935130609,-0.0003045301272552509,-0.0011342259533261095,0.000863909863399541,-0.0006566370196255314,0.0003563788189098264,-0.0008924777889477017,-0.00042102865887362764,-7.1537443507226554e-06,0.00021240919259140053,7.36963648629864e-05,-6.729365216059279e-05,1.3351821168777307e-05,1.9860815966999873e-05,2.483915782655095e-05,-1.2322682954643312e-05,3.7892438432985636e-07
-43.67324963263621,-1.6087682729044246,-0.3211812950321843,-0.1240547782445297,0.03992052079026173,0.04372132469584537,-0.01625196658032182,-0.030362687883607107,-0.004898005357091537,-0.0025232846172402556,0.009042315960634173,-0.011027234762961972,0.001349993559390491,0.0013804332368077827,-0.004423850364773709,0.0025089544012542307,0.0019022155466742483,-0.0004991264676435351,-6.749329839477608e-05,0.00035741447359875485,-0.0002042167830829641,-9.974097662919169e-05,-6.27612693179802e-05,-4.1466579900824835e-05,-6.726002298003942e-05,4.501122854976381e-05,-1.549290576116205e-05,-1.5955508214231758e-05,-1.9517399882321852e-05,1.7900447405780182e-07
-44.669492379487984,-3.3436123073347472,0.04956754117474265,-0.1084694281515937,-0.04290563956629857,0.13703871338754137,-0.00123505080982285,-0.055367296549724145,-0.04493831116194403,0.02703137993787236,0.01264517429483455,-0.001405324428870501,0.0025471376740608307,0.0002923857271837451,0.001343287510237024,0.0025378698615130374,0.0004905531786133379,0.0025118140481425262,0.00048033371675518244,0.000156376391767833,0.0002961849479852747,-0.00045164075606308,-9.98270393321872e-05,-6.879508338350776e-05,1.0487191621529387e-05,2.8080522826736368e-05,-4.258543839211419e-06,-9.385979152166408e-06,-8.187035663090998e-06,-8.051651292896146e-07
-45.43306356286374,-3.2722090287915977,-0.2691260301526996,0.1292444794525308,0.08088851019948587,0.09066910274278482,-0.06904997165868862,-0.06845478649993499,-0.03209818969198608,0.0026002587716004487,0.019366177861188414,0.003868414455665838,-0.005063151199988413,0.0029497763480249486,0.008743904526540041,-0.005421572983941799,-0.0002611653004319895,-0.0013456947635122165,-0.000618925474842069,-0.0004092978782069265,-0.00014969894932647632,-0.00013371551004149387,-0.00012026371601178103,-2.0799077850778296e-05,1.732585063969529e-05,9.095504065563561e-05,-4.6078599932216246e-05,-7.398051815518254e-06,-6.932369667969606e-07,-2.081624380753565e-07
-41.27221341893233,-1.5395676568089032,0.06747803198669255,0.27257780872488074,0.061646175574031,0.07002115171435246,-0.12291891626324263,-0.007755080154385127,0.010076269068703118,-0.015413857111205641,0.014160118008052652,-0.00020302979659020775,-0.0015331184533328372,-0.001485803117529215,0.004566427072093644,-0.002440715374948935,-0.002177113230439982,-0.002134934027489963,0.0002139554686754631,0.0004199605241548838,-0.0001449788994508603,4.732034935443833e-05,-0.0001712609429545628,-0.00010154953718935389,3.8701911326071336e-05,5.578029753779728e-05,-2.611274528835029e-05,-6.963737950352865e-06,-8.611341656367883e-06,-1.1436521806841895e-06
-37.82581744711533,-0.3673583975856723,0.9570132501585349,-0.475283347504543,0.18316808353775332,0.014469193943473442,-0.06326548485547338,0.03922961557444033,-0.0244495396611479,0.002152844932724568,-0.013311581774667099,0.004346860560124706,-0.007141963440605627,-0.0018912234884624504,0.007559684453384246,-0.00029808569774375705,-3.0840067034716824e-05,-0.0009735371507098755,0.00020178554793944897,-0.0006974450957867909,-0.00015797257469068776,0.00014907061244353293,-0.00013305416305793504,-3.1446342672112227e-05,-3.301594525029912e-05,-2.6624925187383974e-05,-4.365986080246316e-05,-2.7484782940230907e-05,3.656597526715798e-06,-8.291209799480184e-07
-45.82998231283552,-3.9351340655714075,-0.11172275834479586,0.15599112979157467,-0.010546054869112252,0.09489663490436413,-0.024395258522126245,0.041090100112408455,-0.02163223982274466,0.014161832022464406,-0.0024541363822193902,-0.015924895068343384,0.0014822352169690386,-0.0015844792886880515,-0.005070088618140237,-0.00040478388887808597,-0.00044126940432231493,0.0009031573688611197,0.00098275890883412,3.160416000485006e-05,-0.00029631206854218583,5.920598718866892e-05,0.00016526141771659535,9.00446022054894e-05,-3.3300975781680456e-05,4.5093254910534694e-05,-3.899801225474334e-05,2.060122997152257e-05,-3.0290158051976913e-06,-5.784102963100939e-07
-44.87813358117476,-3.0941630452933016,-0.10998224236488624,-0.049025033231066814,0.038047788538976494,0.15366622077626835,-0.01499641004963192,0.04296800827323532,-0.018602614790972565,0.02082786457606334,0.02244848008179806,-0.008580187393567763,-0.0016695541933286233,-0.0016153526960823146,0.00340619201065001,0.0011090202015789697,-0.0009279459064358574,-0.00031328871573469677,0.00024786073512715194,-0.0006212109091004043,-0.0003236282819612193,-0.00021146881752219821,-0.00010381580616948079,-2.2809082922382175e-05,-3.931303480652796e-06,0.00012165739933793839,-2.191817678675428e-05,1.2883646045762962e-06,-1.5059148342568433e-05,5.010534881536132e-07
-38.80021670244515,-0.8286355988842761,0.8248740884741576,-0.4923349867950144,0.20640490110496068,0.1415183541551213,0.003514217274907772,0.04727911244266842,-0.05701913522044325,0.034353921009740586,0.014446991990833043,-0.011292623308200828,-0.006214505665896359,-0.0012910160169489046,-0.0016501659288625633,-0.0028240763562239184,-0.000270439668953237,0.0014756612948109147,0.0005223622898785542,-0.00027571914671337957,-0.00047499258157832834,-0.0006377817106653627,0.00025808652513959623,-0.0003864577622030273,4.8661577134126514e-05,6.104586302812685e-05,4.7779941074562716e-05,3.9532202480357907e-05,2.0868858758599768e-05,-3.416016166872654e-07
-44.88716932072109,-1.5865038058060994,-0.567811199258554,-0.10120969627613588,-0.37463873078369264,0.16781121798030982,0.08410922325121749,0.02847961434047377,-0.06794427764225652,0.022175474143859862,0.02058756725011973,-0.002013727463033554,0.005889809548610918,-0.002139846998785163,-0.004158632357563665,0.0036599003279668696,-0.0012881952349056496,0.0019556707389190436,0.0007858375079864858,-0.00015148074156196413,0.0010867249017386474,0.0004474555291274262,-0.00030282007085411774,-5.182468686667624e-06,6.31634652746208e-05,-7.084046456168528e-05,1.958423164118571e-05,-3.2774550102378537e-06,-4.8538801529516555e-05,-9.99347693179447e-07
-36.18257170982522,1.8543795939616992,0.21987812802953305,-0.032775261092579284,0.15799063273848854,-0.05478661435002821,-0.03451913997832383,-0.0038355601163346043,0.011902059373218829,0.02065408446475589,0.01852771776252005,0.0021644871399016568,-0.003718527054656458,0.002803330373660129,0.007657426962345832,9.81037505313807e-05,-0.0024536527455675523,0.0019892871155221957,-0.001313833359536343,-3.867372829538322e-05,-0.0003865801120490841,-0.00012115865499112145,1.8100427295600632e-05,-0.00011192467286517107,1.2094743413659623e-05,4.608826033181185e-05,-2.5641513747485096e-05,-1.0443874037827159e-05,-7.003386038538159e-06,7.91009846803944e-07
-36.33360665369597,1.3757850134673957,0.2666430481973263,0.3272863971074943,0.05858848144066613,-0.10505505799282318,-0.016206533641483563,0.07255631530538247,0.020818031757171066,0.0068580713490490166,-0.009775077604313686,-0.015482315254381384,0.004009102901480547,-0.005045866103748711,-0.002052901694284373,-0.0035100492605897736,-0.00012017568675183466,-0.001276326831121751,0.001500309726832085,-7.483585080884838e-05,-0.0005040490252687379,-3.0060389420676353e-05,-1.2919953638934487e-05,-5.064651471337479e-05,-6.706567692655132e-06,5.732725755950018e-05,-1.845091347457026e-05,3.185038746719038e-05,-2.1731117429077156e-05,-1.9481489802329695e-06
-44.94424372953946,-1.8977010111590764,-0.5822040888945005,-0.0033912316025432043,0.04405103835355336,-0.057367730915390824,-0.002519780400211272,0.08053181930257748,0.032853013017324365,0.016220333558344187,-0.004910425561319381,0.003751788705813868,0.01600818419765484,0.006772342437227006,-0.004251412533292605,0.0006223703836037067,-0.004313914112361294,0.0016606939183345226,0.00023194514635868345,-0.0006517025331843118,0.00021700473673368076,0.0003642205900834825,-5.182563850038306e-05,-1.39656332190895e-05,1.7510836843202075e-05,5.121451970517774e-05,4.820414063108977e-06,4.0891872070356275e-05,3.005209551807078e-05,4.072254154230017e-06
-42.83254652338184,-3.801963028940817,0.6027454509416852,0.1799878428269148,-0.022237362354605696,0.0449231603547118,0.013047169542437112,0.007568344187358356,-0.0341603946335941,0.032026743281165344,0.010346745302724544,0.01031647278137845,0.0004791779916681911,-0.0014118571162519047,-0.003710789654539459,0.0005413040910714306,-0.001705066115786112,0.0012569520975448261,0.002196001060885128,-0.0012280516807049648,-0.00015488148766961915,-0.0002606085150764308,0.0002317379021583999,0.00018442657323591334,9.204558525924602e-06,-3.323742863261836e-05,-1.1245054963515198e-05,2.396105750290859e-05,-1.9733321444076874e-05,-1.9051899399842496e-06
-47.73733599029122,-2.7228241712001973,-0.9581552220987047,0.011713445752156436,0.10205396441645066,-0.037068324186159705,0.02893111478901915,-0.022609614942249112,-0.00842212430929833,0.021427479853670366,0.003846537177925275,0.0010519449095753603,-0.003560938204159491,0.00891642824332366,0.0032089970625721886,-0.0053476860638066144,-0.0002224146632158405,-0.0029397917566747634,-0.0020266429657063577,-0.0021541309470456344,-0.0005938637050020475,-0.00011576893568192221,-0.00011556360360688243,1.871667145467176e-05,2.4039403306744573e-05,2.6104271511917346e-05,-4.829366651213746e-05,6.339797095785586e-06,3.3731720599125447e-06,-3.105096254187098e-06
-35.17155131145979,1.6071810959286947,0.6992331508773744,-0.4637872415742543,0.04634077448850884,0.2886976147670244,-0.23353041495238516,-0.04732229985093981,-0.01118375652645273,-0.0008229764596907668,0.03363306227564765,-0.009165292385942343,-0.0025804274818169576,-0.004862680131088368,-0.00346868258750737,0.001109950399081023,-0.0026824489935870343,-0.0005693381876163318,-0.0019297547362045512,0.0006116672727188057,0.000155913111096762,-0.00028769253787635374,0.000207335686252219,-0.00010189277531237475,-3.6948615000598766e-05,-9.601486982525384e-05,1.5494759744709325e-05,0.00013618054131408927,1.6427452074883266e-05,-1.992831089402427e-06
-42.57043730146741,-0.5267339386783786,-0.3327427495120993,-0.2669368517121829,-0.14682869358512382,0.12484521461563261,0.005104632466110064,0.08890551606594925,-0.015091429954315923,0.01079617994380882,0.010444985457364615,-0.005378474103694039,0.0001846765957376194,-0.014457751543544086,-7.62247073354242e-06,0.0025346473791025555,-0.0016258339288252913,0.0014984573634206381,-0.0017781872583844496,0.0004661938113635757,-2.3918856322261706e-08,0.00016025529650149845,0.00011719776732549806,-0.00019737202017089568,0.0001809555329557947,-2.2348589509480016e-05,-4.233520382164855e-06,-2.733752799326775e-05,-2.1864883488117083e-05,1.2043548685023522e-06
-38.50897672454641,1.321646568320193,-0.09843525854827687,-0.07365857609482139,0.05969782529823761,-0.08950086298360296,0.020701620212650915,0.09835006177402304,0.025940676424356227,0.012402001696364828,0.00428411504932327,-0.0042838274319698996,0.008603197014627074,0.0014895159917711768,-0.0013608356248612258,0.0006135802522678029,-0.0005442876426705814,0.002455002291475448,0.0003746817406225698,-0.0002332799374923774,-2.9097577125357794e-05,0.0005039538271878185,0.0001366901921356751,-8.024087251897525e-05,-2.1448403491771152e-05,-3.751852116723256e-06,-2.2821887438657916e-05,1.9700616793764037e-06,-2.4297162523020766e-05,-7.32016194566014e-07
-37.703622050359755,1.2133242709671896,0.055817219615419134,0.11800810999682833,0.021652583995967575,-0.07611631996347705,0.05036924691735635,0.10153491764126567,0.00597124181108404,0.04108402660952981,0.012198040090400307,-0.004937732448686989,0.004098414839610423,0.0025683136766213015,0.00098705890713094,-0.003337119013031539,-0.0015729287423096009,0.0035909949255553083,0.0005110067492672111,-0.0011361362484695688,-4.9210404219674136e-05,0.000272123588101715,0.00013890180415705852,6.457594757581563e-05,2.340391409923126e-05,4.116429754819177e-05,-2.8520489002401985e-05,-3.876346326104434e-08,-2.5148728367628906e-05,-1.8319890769291322e-06
-34.31573169117023,3.081322145566347,0.20289420615815973,0.268740534513681,-0.317630866822392,-0.01977289705424289,0.013191228579043155,0.09794202420931479,-0.007545953477586218,0.03362803248492561,0.00046504880825660934,-0.024911897773119463,0.001964650209564692,-0.0033324642333561216,0.0062725283383608015,-0.002581006401745805,-0.0015587895795753078,0.002087234261489644,-0.0007547398819257395,0.0008143668311046013,0.0007771585390425233,0.00036159705461681304,0.0003517401199934914,6.63345164757913e-05,-0.00010900107837970073,-2.9062010663629763e-05,7.532690646749224e-05,-1.1916558539891672e-05,-5.958260411247063e-05,-2.9479213159578224e-06
-40.96234953572437,-1.8898688045994596,0.2862652930491042,0.29559954437927016,-0.04682854244003139,0.011561825333965907,-0.049298919683510974,0.07081377992570916,0.016971459763747792,0.024034885226208596,-0.008805427531841731,-0.013186009329842811,0.0016572388932125177,-0.002508544155417582,-0.00912724880752038,0.0005478684700460315,-0.0010687918531762067,0.0007703704721356671,0.0016215454891532423,0.0003552142824119549,-3.787781057880967e-05,-0.00015263712006616207,0.00022276434450227482,0.00016583774373873244,-2.6006012489327292e-05,6.082017837662898e-05,-4.582436143644124e-06,1.8148733518949495e-05,2.636804673849912e-06,4.346075844574302e-06
-42.62645789501159,-2.7974931308337645,0.5316882542616934,-0.3473371605195116,0.008955403965809433,0.04610026131557492,-0.0404404062514454,0.00608461025105091,-0.012370571355029206,0.03497605112471166,0.0023374866175511658,0.0007204864713814149,-0.007309520883774098,0.0008793975664404079,0.0027516628056221256,0.003916170265010051,-0.0007380620130876505,-0.0008155503486571724,0.0008723814653452187,-0.0005832686070275989,8.592269513478012e-05,-0.00029109756243586517,-0.00010039496540693698,-0.00020036405383829094,-3.606503972147433e-05,7.557679586066392e-05,-2.745862780399869e-05,-7.334567154047292e-08,-1.4086857915257626e-05,-3.472833552497044e-07
-37.880594145877204,-2.6615365242328166,1.424259193971921,0.2735306658660683,-0.03169994501959406,-0.030226583135388507,0.03781171683344896,-0.03226085069294188,-0.005675691728264701,-0.010501810763117302,0.023417257780051992,0.004117531261483061,0.0027878224811457917,-0.0049632123991934455,-0.0041621027192225175,0.005024410317363118,0.0033651621334351294,0.0006410645894528479,-0.0020217127041514448,-0.0028418866372459614,-0.0005357316234249083,5.7810420185270527e-05,0.00022285958881629577,0.0001550923702971013,3.268545835704345e-05,-2.949620612753028e-05,4.778241575862141e-05,-2.964969289436546e-06,1.3094489372878191e-06,1.4412096428063158e-06
-39.300674743352246,-1.7196426351078518,0.651071505270583,0.32968809702028085,-0.08241130767511796,-0.05652935570564736,-0.006677154034270728,-0.02382828658820029,0.010760325807961092,-0.0028097614898683204,0.005795042729925092,-0.012840976774520617,0.006068971734989147,-0.007854498901817232,-0.00480879235655329,-0.000631594540349103,-0.002348398468787414,0.0014203718745597477,0.00018316233884694663,-0.0002995262412299011,-0.0002631472453144312,-9.57028049133008e-05,0.00024893944987170445,9.644050443870048e-05,-3.947075172606365e-05,5.10250944118179e-06,9.341950379572013e-06,-1.999801082374429e-05,-1.0246095451136142e-05,8.498895870177518e-07
-40.21293756164647,0.8085242502220171,-0.3313912018865083,-0.048798452201774485,0.031830818767321065,-0.1574475984899315,0.07126603134940672,-0.0021736153427977987,0.006114535669237462,0.013429771147645323,-0.002538051365422321,-0.00016136040578707,0.007778769608510549,0.0037299826402010378,-0.0010227595170777986,-0.0004260685505637835,-0.0019201652468645014,0.00219419210051103,-9.299141003820833e-06,-0.000659846533031907,-0.00013655313090404813,9.534634467805372e-05,-0.00013988284776473656,-4.200286682733869e-05,-2.488298863082536e-06,-1.3341936791720912e-05,-1.3375917724991749e-05,-1.3539498104337353e-05,-1.8802690093092947e-05,-1.8780310796978423e-06
-39.69860827772894,1.1125416902663574,-0.42997159792260936,0.020944186369539004,0.15085521604874147,-0.09705804705406985,-0.05596723900305587,-0.04032301307381546,-0.015398238971851538,0.015242612559250163,-0.004376517769697872,-0.005159037994239305,0.012828397491939033,0.007954123719645236,-0.0034946419717804154,0.0004429157255959814,0.0009899814602600029,0.0010150511744028458,-0.0015304738496062034,0.0004028545408157923,-0.00010596776761158969,6.995169587398479e-05,-6.667082409500468e-05,-2.1801423690964617e-05,-5.5941978000932374e-05,5.997595577203175e-05,-3.694272040027659e-05,-3.772336552656858e-05,3.508777404147771e-05,-1.5042752524504332e-06
-47.34576858258176,-3.240953631733906,-0.7218248825728876,0.030996127251338247,0.047436896334497505,0.13484335490163651,-0.014726675937506772,-0.00699553631247567,-0.012521997226646233,-0.004159257227678268,0.012737539484137219,-0.002572064883200438,0.003056680478188035,0.004305741195308375,0.0006792446914062433,-0.0004551935485662178,-0.001951565749578042,-0.0004942442699555126,-0.0004044787849510078,-0.000895531212173002,8.067651699687165e-05,5.5972161503408905e-05,-5.493534048270399e-05,3.0348616857346054e-05,-1.5618156127101267e-05,2.1588864396334825e-05,-2.709971967883981e-05,-6.44594210211118e-07,1.0704762402606983e-05,-6.085339881528997e-07
-48.79390474382129,-3.6868710834684975,-0.8682752346052943,-0.03432138761737825,0.033498779464939114,0.04333616795191183,0.003810029008582899,-0.022687692151991044,-0.023663589326895267,0.005086313570187148,-0.00546819392963179,-0.0021625442006712025,0.003572687652380504,0.0037926597207240736,-0.002117465003560576,-0.0010229432471987397,0.00018399184006769433,0.001030296634908476,-0.0021587732293946982,-6.578419268520684e-05,-0.0002572777886708407,-7.078886933261143e-05,-0.0001686558423728858,2.9945232387474097e-05,4.763170921132197e-05,-6.680382490981804e-05,1.0034405757757252e-05,-2.3130847833204136e-05,5.253756146145486e-05,-7.264225901939206e-07
-40.46873470093665,0.4431717447542645,-0.16523058019069378,-0.3171578675767061,0.029990328637979707,0.0747580874025171,-0.023808709441556514,-0.028638773168225655,-0.06298538168328932,0.014091830036402408,0.01214253950562007,0.0021868887759008853,-0.0020321960247973647,-0.0113604286107811,0.0019041029564406955,0.00055222809820739,0.0013238782744398592,0.0001323363546590237,-0.002165540668248807,0.0002165684174510875,-0.00023201859873702324,6.091438857689472e-05,0.00016865871819084726,-0.0001932990335707172,5.311509925915172e-05,-2.791523741037659e-06,1.0792054650652059e-05,-1.4576791396332364e-05,-1.3823480948253721e-05,5.646223370256909e-07
-36.620175583590445,2.4739255697016405,0.05005499555602663,-0.28551477488984117,-0.10760128039167256,0.11097955641669345,-0.032462431482340404,0.02337808880263786,-0.027660621794503036,-0.0026274929156002718,0.036420379289438025,7.661330665561425e-05,0.0038797083426683854,-0.003242963684907837,-0.0011517640816801687,-0.0007056524318935074,-0.0013272826385133515,5.9869511132179664e-05,-0.00044106751293970304,0.0010423013450763057,0.00018519673409620935,-0.00022604669612897666,9.596309234602197e-05,-9.842999762671963e-06,-1.3472219376100492e-05,-7.038269866795531e-06,7.58580988812783e-06,3.1691050292623085e-05,-3.3564673790380396e-05,2.4320356332897184e-07
-41.550986338472086,-0.19163408465796003,-0.226979879114923,-0.2465663106568737,-0.17365060144551292,0.09464850087245152,-0.06233974757667124,0.06548865208505436,0.012814287798985254,-0.006403401733046244,0.020871782382510286,-0.0073913162126949695,0.009046256719613633,-0.004404155162355374,-0.0031464047777904802,0.0030752297667186444,-0.0009423010655856017,-0.0009497022940271122,-0.0001211679988363372,0.0011290243159675624,0.0005961943481463061,2.4339834257676442e-05,9.765262726951439e-05,-5.529365547334559e-05,-4.0739268783562956e-05,1.4575338335244666e-05,-2.03740881948193e-05,2.6710834375757208e-06,-2.10208555308626e-05,1.6129639604181058e-07
-36.244677870703335,1.426017264400954,0.6831393369562545,-0.40001371300034483,-0.2825312108715293,-0.07044041022446897,-0.15364847501025877,0.02848811595991681,-0.023523059728104034,-0.004853397532209014,-0.011097715367079031,0.0015406553893235876,0.003725910103136339,-0.00010731609624487622,0.0001654769670342919,-0.0003170664475779016,0.0003455023100033962,0.0013124995923920056,-0.001157358763654562,0.0006422856339826676,0.0004613778065760069,-0.0002489171654180585,0.00010324971711663277,-0.00027818921617928685,0.00014648951792323514,-6.877734218458352e-06,-6.615577231183314e-05,4.229999880162006e-06,-2.0707275436692575e-05,-1.4899538837796058e-06
-42.98347863534938,-1.6356536499418741,-0.11283164331139793,-0.2184806606573031,0.029965101224515008,0.11210616102193702,-0.03731472213455427,0.05787109143691665,-0.015457274006512726,0.021305246959166205,0.012962753150705959,0.0017033525061059401,0.004526427507779035,-0.0015274363737827856,-0.0020532728848778295,0.0037914674955906954,-0.0011556077245539955,0.0029393764187420736,-0.000421864774141433,0.0002520386481951071,0.0002834732046649633,0.00026082911360117406,0.0001263226296558655,-0.00018616665983935571,7.376739904283244e-06,3.853639095804338e-05,-6.646696166218977e-06,-1.2338381185907711e-06,4.1965345603922385e-06,3.619724601978898e-07
-36.985489470745065,2.407803372030239,0.005543791196366666,-0.27725892906068134,-0.03116773595113051,0.006406007412660405,0.04731037132033619,0.1141775045048017,0.010363632770046339,0.008435577314671492,0.02264633474500778,0.001551314858885568,0.011377551588578692,-0.006539846657545885,0.00012845036945018933,-0.0002696794006764833,-0.0018093587442602488,-2.3847533407682973e-05,0.0009460250139832364,0.00012386160658500378,3.8379711316801074e-05,-0.00015628750339869053,-7.862887164282018e-05,-3.469826211911214e-05,-9.555167751781307e-06,5.0301039269166984e-05,-2.3529993391705043e-06,-8.0336883430402e-06,-2.7780759885464775e-05,4.76617824270427e-08
-42.196963387332744,0.13267970909740867,-0.6410542484738097,0.04008005190108786,0.11506499750887818,-0.1551641471337246,-0.04396746927467735,0.07430783898483319,0.027030133400894715,0.03291701124239152,-0.018082263144340215,0.0013384339843606015,0.0012671183310513372,0.008499912709810343,-0.0015079612033655557,-0.002087205743985917,-0.0015653559616702235,-0.0011082755406017805,-0.002131303974225784,-6.024826779711764e-05,-0.0003910385329455594,0.00016335753417401748,6.622141874359212e-05,-1.883369680165846e-05,4.4464157349989314e-05,0.00010880292301735217,2.799455735169921e-07,1.3657389693764859e-05,2.744964290715798e-05,3.5108770873041155e-06
-41.47353115177003,-0.22116769844708814,-0.11382061098263334,-0.41641272197771756,0.06356275579175748,-0.09927687826592842,-0.07536125524047776,-0.008814668863701238,0.021158130972718864,0.006552372674637553,-0.006964304718621941,0.010114406734267563,-0.0032119532178863717,-0.006272903385543144,-0.003044860499321448,0.0027812725428554065,0.0002429534187732027,-0.0019217390136835703,-0.0014381912806110504,0.0005507981562177879,1.8361282350889464e-05,5.07509356290172e-05,0.00019692142401967502,-5.735836845309337e-05,-0.0001692702382800203,7.027126114842039e-06,5.865151353769344e-06,-1.3022064116768435e-05,-1.921808021420946e-05,-3.7453645174667834e-06
-47.396048192822995,-1.584986672899409,-1.1628262039211312,-0.013755797929593675,-0.3779154538740372,0.06915583229844975,0.12608051484800079,0.042972232673891816,-0.028169655512344596,0.007682144356386539,0.008174271455143801,-0.01892774057001901,-0.017740387979317426,-0.009190853582510624,-0.0006832456062311266,-7.064911802122408e-05,0.0007282185761224996,-0.0038730058557506627,-0.0018742144654142932,-4.421587011381003e-05,-0.00033599940760815173,0.0005396611792005209,0.00010624845558411994,0.00012185819669069024,0.00020959500276552113,-0.00014971734057464306,5.378207078462015e-06,-1.8899020537308877e-05,-6.711214349235795e-05,-1.1697965203450205e-06
-37.733207714308705,-1.2107318556329152,0.918727411406312,0.144975850191019,0.07407926873372908,-0.027276241794554946,-0.05929673852860873,0.028350694450737506,0.02395090441523131,-0.0037718034412567818,0.013432283527248646,-0.005271515539874261,0.002540046232678124,-0.002413573035187587,0.0012902726308733493,0.0052198112181982784,0.0010850505822031123,0.001179456243224212,-0.00029739082690513066,-0.0011553709604463847,-0.0005116927662953814,0.0001422198182297697,5.143031984080117e-06,-1.7443009602957134e-05,4.7670530693002e-05,-6.718752962110543e-05,-2.135487968963284e-05,-4.131819767610344e-06,1.466451963510371e-05,-1.3149156019358534e-08
-39.98037006041075,0.5080115599925548,-0.106115435135275,-0.14964675845330364,0.03230087088335907,-0.13028837536561072,0.06536723197230121,0.020970279878980216,0.009764930966782047,0.01684511149310178,0.004696099677074121,0.005531221674754577,0.0011808637568234183,0.006200149809884074,-0.004296713793918744,0.0006038718745603975,-0.0007502613964909833,0.0020277211860814178,0.0010083134555743751,-0.00042050020813535804,-5.068420943094475e-05,0.00019336512772420968,-6.969776944415597e-05,-9.076930907531008e-05,-6.640745789382187e-05,-5.6149268910536844e-05,-1.9386489797873464e-05,1.2716492597952825e-06,-3.392096584305969e-05,-3.66925907196666e-06
-41.128483463435664,-2.2686079329673543,0.3930634085116492,0.3300221692945843,-0.10138721768038637,-0.10625528741539884,-0.03329495361524225,-0.05398083016907036,-0.0032295578727384484,0.011317279513732202,-0.0075837885272956075,-0.005061127431272135,0.005452662547297945,-0.005044001757895596,-0.005361522014329374,-0.004077925548763669,-0.0025827181334915853,0.0019139715021361684,0.0004303717332659354,0.000613727745278696,-5.322780096674072e-05,-0.0002580890161537337,0.00020794869964253516,0.00012863355942099028,-1.1637332854223934e-05,-1.4780027726603447e-06,3.347019715563693e-06,-1.877914498857496e-05,-1.7531805021871296e-05,-1.8865656032131846e-06
-41.00271401455903,0.08110537145240337,-0.31725686024942434,-0.06597850499602345,0.10696666858660207,0.04746827473901626,0.011165981571344092,-0.013262633354771812,-0.006783235691374573,-0.00779261274611203,0.02012630208575876,-0.0015818074438392416,0.005302673906553708,0.003781244831058702,-0.0012686523952088926,0.0009314502726531221,-0.00041482681988879165,0.0017824627924612054,4.312839774021946e-05,-0.00039023473849087576,-3.502386814789207e-05,0.0001440909824456885,8.318646246787147e-06,-8.732142925171793e-06,-6.310424216368889e-05,7.523464468696764e-06,-1.981016517586521e-05,-7.632995581310903e-06,-9.092739370845776e-06,1.2322717522403808e-06
-38.04570742180277,1.767976673208413,-0.2633811742005367,0.2078534290941162,0.1122443394124074,-0.1860186483725358,0.039307810117869636,0.014000977380477982,0.027997217690612797,0.002143164071911941,-0.01710977558612763,-0.013166455653613114,0.009335631191221664,0.0035156278041325274,-0.006713267303932617,-0.0026447908795571113,-0.0027915158705809954,-0.0006652410212556419,0.0016711518430633798,-0.0006450401248625839,-0.0006200917595533034,0.00031444686300308367,8.176635956876413e-05,-0.00012936156823975216,-2.9251296765450025e-05,-3.655321171087352e-05,-3.7466670126396163e-05,5.011237403113562e-05,-3.194715476261993e-05,-1.2415792443396242e-06
-49.17949259655861,-3.8686660973201032,-0.9025541203809027,0.008796293088243586,0.008724552557968808,-0.031156317124718145,-0.024128470609252523,-0.020401648872274043,0.009186333355331902,-0.0018644562199582127,-0.013810767728288844,0.001197311196161516,0.006647351259725559,0.008567100756705312,-0.0010546229216437267,-0.002447915681183245,-0.0027839463823754952,-7.461084108359083e-05,-0.0017571296718966155,0.00021865754320524598,0.00014317528659812086,-4.777442457388676e-05,-1.6057162440748324e-05,-2.84729172166751e-05,1.1106982361432514e-05,-9.710703206896192e-05,3.3862935070356325e-05,3.151054614975302e-05,6.1026723603649786e-05,-1.381418032280754e-06
-46.483251703916295,-1.8807586784997308,-0.9890844215528563,0.05594594540426951,0.0458465242459436,-0.014263339978108937,0.030613673667917247,-0.019560044407412224,-0.00902621957643989,0.00010585283615649843,-0.01195483081408965,-0.005993517672956933,0.012446309114703326,0.008434021230212956,-0.009236522448009718,-0.0001515943458123873,-0.00019698459797083315,-0.0017673046735890623,-0.00030774260523653885,-0.0008272365918955954,-0.00023175649779361396,0.00015767025403073734,1.7307708543701215e-05,7.211978062943158e-06,1.341156760831954e-05,-9.054445566141956e-05,1.8512992437926434e-05,6.570060141954948e-05,1.8242122977940225e-05,-4.683986123160881e-06
-34.377093903338974,2.130397108833652,0.8475299509230213,-0.39133443234554915,0.048819661320483945,0.11359415782009231,-0.003444897765239836,-0.01048740140758801,-0.06924053443180843,0.0059242690093377,0.010878545684971501,-0.003932900151869896,0.002575290158165042,-0.0028009340920629724,0.0028857632782340876,-0.0036491165966087737,-0.002414358175527334,-0.0010762124302348256,0.00047446248647429134,0.0012275507212505647,-0.0003392117929977342,-0.0002476253422783935,0.0001101484747290367,-9.697453264463113e-05,9.502333685857818e-05,6.177855902454596e-05,2.1483500220746912e-05,4.918373224912134e-05,1.1338857085802398e-05,1.8389313756053891e-06
-44.47074003896725,-2.700507281068719,-0.11875730763460784,-0.10354159452332845,0.029784608961893756,0.14274641982173508,0.0016544197160569527,0.056190262912562815,-0.009555360710098399,0.00746865162487581,0.011836325552258357,-0.007699961146350352,0.003576930918560099,-0.00204262261565378,-0.002022617838981581,0.0038020565835292248,-0.0008777150945683462,0.00033896370888016357,0.0012408191221581295,-0.00027844011605793553,-0.0001631666685459236,-0.00011313019964133543,-9.291718658668869e-05,-2.5372147778590123e-05,-1.2448524730273713e-05,0.0001013907898351923,-1.0323050758594777e-05,-3.2314966451949475e-06,-7.1937939879079236e-06,1.484164070657001e-07
-44.92932073089406,-1.9758598087131145,-0.46772698423487147,-0.2307319167413112,0.024774944526241637,0.0334134672091947,-0.03851833520202826,0.029317693208644295,0.0019332916848179775,0.012806882897926863,0.011428158805604348,0.0024601191018465123,0.004322655503902977,0.00041866401414124093,-0.0021382942600895604,0.0026279005260342663,-0.001244115647993491,0.002739790006976081,-0.002265054709351396,0.0005004547358268427,0.00020275367804338082,0.00020425984248816195,2.249887346343412e-05,-0.0001312573175293037,1.1251586298475872e-05,1.9973621309803206e-06,3.342511913185843e-06,-4.151675650846772e-05,1.690123874018831e-05,-5.619090946138912e-07
-39.03845163660745,1.1104241118467482,-0.19734546849496296,-0.00927614990659559,0.13590349738001545,-0.11071855941947611,0.06157745224895041,0.02496524515812107,-0.005686032943342065,0.028299276663777337,0.004470508216874886,-0.004939740462901421,0.009165385940503827,0.003543804194416105,-0.0038875459277880604,0.00010431315699325295,-0.0007377739618162824,0.0008371433690728437,0.0011189724800470418,-0.001350602831770463,-0.0005728575922100429,0.00048626241348082467,2.7714683739750862e-05,-3.580809722762028e-05,-5.1129868357379774e-05,-1.5903116223281524e-05,-4.4342015133165734e-05,8.661926364368134e-06,-1.6108220086599457e-05,-1.137427332177542e-06
-40.44683524586933,0.721633358783237,-0.45770857895959755,0.026935611027554106,0.17864967848627603,-0.08267625014422264,-0.0756149312561834,0.02280726086970492,0.010174117448725211,0.011048059817429056,-0.0026848378715636587,-0.0057537769162628585,0.00925333162980821,0.00581521607886382,4.153550267587184e-05,-0.00018000806881069946,4.8836978733699315e-05,-0.001791944662334098,-0.0013043224861666342,2.852522507707734e-05,-0.00036207353417716444,2.913760629365748e-05,4.333857473551066e-05,-6.898143424672407e-06,-6.210094779170264e-05,0.00015538736293229337,-3.2069739435935355e-05,-1.1691195489816614e-05,3.014284236739138e-07,-1.3298269803647769e-06
-39.737197904006784,-1.2135894329893249,0.43867597626835125,0.24787354199752298,-0.0460191961156919,-0.1806667406029498,-0.005476574788575472,0.03362894804476768,0.010827488528740383,0.03181476815650746,-0.004088429381078251,0.001527114367959235,-0.007676293818063733,0.0010611973033319729,-0.002958526857770029,-0.00482878909459481,-0.002198479167149114,0.0010958412919112278,0.0004147986896141524,-0.00034479390824564414,-0.0003360477335390199,-0.0001674379064467062,0.00014463921397143357,6.220442003491397e-05,-2.242844436729952e-06,1.7040534310783182e-05,-1.1301377077953825e-05,-9.184694220661135e-06,-2.7739957960141235e-05,-1.0290111775958208e-06
-40.838962671963664,0.34412352054373013,-0.35563975308402923,0.030974499443908777,0.09302531673627157,-0.18528304351992753,0.07497874228224241,-0.013252705337546817,-0.0023813862966567735,0.02563027522244252,-0.007311999332198361,0.0005395106362534451,0.008483664627305806,0.004209493827724193,0.000181885871689772,-0.0029251934131819504,-0.002095591781655481,0.00118509178175037,0.00022925385828947238,-0.0013652665270828517,-0.0005123948750627892,0.00013331502302596225,-0.00014444604605882402,-3.155304906764992e-05,-1.5668073758991837e-05,-6.404025282579634e-05,-4.0659064376138905e-05,1.537750811632386e-06,-9.259717539466658e-06,-3.3161547820554826e-06
-43.789940694989426,-0.8232172394393975,-0.706208096975265,-0.006147748069185591,0.14218917662116534,0.034887297418510876,0.015405766993356806,-0.012584202659267154,-0.012427552171085869,0.00809730086482825,0.010133034033267672,-0.0002452658395555117,-0.0035567355464305814,0.0026891173512581406,0.0047739554764474265,-0.0019202044761855788,-0.0014078902984746501,0.0014457667991606973,-0.002604775966327253,-0.0012850422339457373,-0.0004200519130981297,8.499896616962685e-05,-2.2968831162018925e-05,3.907637588246132e-05,2.099985313175033e-05,1.2930935222354412e-05,-3.5045405778368264e-05,-4.482541670918355e-05,2.7050110406521016e-05,-5.112474862083548e-07
-37.33163000079206,2.6062407882168657,-0.16785298261342066,-0.2709305772665283,-0.06937947360740235,0.015697835470658845,-0.0069737707978279875,0.06265249968712812,0.005649046583469662,0.0016763530632677404,0.009946987746535093,-0.01687583588923443,2.1672603215804006e-05,-0.014169986239922742,-0.005039280471038141,0.0021260969532108185,0.0006614398850934711,-0.002279745195532207,-0.0009712801697978397,0.00031192698031035386,-0.00045492527384077906,9.106655166724055e-05,0.0002426228775693766,-7.801765910043144e-05,5.2536181651734026e-05,-3.0083676896264646e-05,-2.6279536043581634e-05,-2.111093387816288e-05,-1.48889961240072e-05,1.3480886288471197e-06
-37.33482662653795,0.3624257244358418,0.38064600337768945,0.34449560927420064,-0.04576424165398722,-0.1171007185016507,-0.027817810807357016,0.049527535883090265,0.02475654847436509,0.015836712307781765,-0.008657410105844341,-0.009406758123400236,-0.001468005598189459,8.996446589075987e-05,-0.009184604779872525,-0.002470525122431231,-0.0013501657319297928,0.0006303544481282839,0.0014174810226204031,0.00036774626626737914,-6.813941000120754e-05,0.0002163723147671568,0.00021939513705681465,1.71800000557645e-05,-3.73846798137501e-05,-1.1593744955186995e-05,-4.422207933335103e-06,1.5082267576840046e-05,-9.941642048430786e-06,-3.3921324148034562e-06
-46.4490586114359,-1.8579512739206596,-0.8968262193004699,-0.10288666216500625,-0.2509769190369646,0.08262423111145219,0.036545284616113505,-0.03637440681441134,-0.04923279908118254,0.03170129603393086,0.0058204502254950675,-0.005423038209039499,-0.007918444419093453,-0.0026322338630476857,-0.003915828016308239,0.0005292789803420458,0.001983485196003366,0.0015763144930954355,-0.0033593247520405604,0.0014070452107077986,0.0004022715559684984,0.0002771330033440912,-0.00032576408394446583,-3.872401521126507e-05,0.00017900750207236796,-0.0002475052917331457,3.822517828372964e-05,-6.76338765105546e-05,-1.5981539949811955e-05,-4.417285036991347e-06
-41.32484326957935,0.549987675554668,-0.49480572919756344,-0.19143051319469434,-0.017110943841209834,-0.05573968809343404,-0.07633495225614997,-0.0759225649675132,-0.018133850050984925,0.021844426040937767,0.008396816297913265,-0.008758110302482932,-0.002824012951427201,-0.0007018571853821676,-9.323921802127511e-05,0.00034711385454062475,0.004057711935820578,-0.003971653339171018,-0.00309175840839053,0.0013624694590216794,5.210670197641487e-06,-8.920824995644571e-05,0.00010616195064146622,-6.004284232691893e-05,-5.999657402714353e-05,4.85128780847031e-05,4.600617559401408e-06,-1.669014561808411e-05,-2.974815590614451e-05,7.189832460962481e-07
-39.07048320014115,0.26641846754190374,-0.05320120387871373,0.2559120428118137,0.12494066497157237,0.1661230064972399,-0.05454768861709843,0.008534747610121893,-0.02998854389660727,-0.003818235184886757,0.020585521559040115,0.009369001393171381,-0.0039144886369251305,-7.040321151532678e-05,0.006593476080001254,-0.002542864656498052,-0.0024518266194385498,0.00028463576594656327,0.0003984658246908916,-0.0006068270406494922,6.570910148717942e-05,0.00011160987558980697,-3.1804437403061385e-05,-3.823172050224832e-05,3.636766721145597e-05,1.8824453631335334e-05,-2.0635002444403713e-05,2.068201188139689e-05,1.0865138989919336e-05,-1.8497538469292635e-06
-44.62546592958698,-0.897084369435364,-0.8576637194773189,0.06671503078844207,0.07685414732152988,-0.0991763255608509,0.04567610882195432,0.07336408284300816,0.02250440436909682,0.04164737384605988,-0.011275351323987048,0.004566115685870735,-0.005712633363982113,0.008315185484802845,-0.001911625478098334,-0.002663869878525496,-0.003604704546228694,-0.0023796729902177257,-0.0010925244070251131,-0.001989042791207556,-0.0006048537715928886,0.00030903282482712125,7.5111605474807195e-06,9.551605506770211e-06,7.228193560581044e-05,-1.6576910003852663e-05,-2.5805726356001978e-05,3.6865666525002664e-05,-2.9349606765571918e-06,-3.1500063561656426e-07
-38.24297079305547,-0.18109222946879674,0.3375151989266834,0.3050564130399184,-0.03923298141592812,-0.06238096253555359,-0.025738598136766443,-0.01319039817252126,-0.015099752792365539,0.019999045099412263,-0.005887349484621781,-0.010641811309740751,0.006909040662098941,-0.001302805766910173,-0.007028978442316496,-0.000559774339924962,-0.0016882571505529452,0.00160510274479482,0.0013326687964242494,0.00020224432296161505,-2.7899713598740488e-05,5.478050908445489e-05,0.00023570655225515485,0.00010936191837505244,-3.2664343286434467e-05,-7.511137973031992e-07,-1.7112195741353486e-05,1.3054974283907351e-05,-1.535332889108146e-05,-2.8461407890934724e-06
-39.58149817829533,-0.6963529458785079,0.28682102658305203,0.1779321054906447,-0.1408622201504739,0.07575569010558456,-0.009447800498746566,0.04276221520508053,-0.008352531895846269,0.021704964143753242,0.011278150483054382,-0.01949739328818124,-0.014504802830769365,0.0009276532403438556,0.0012590769646739276,-0.00019216513601951835,-0.00017202456339853857,0.0007828470741329626,-0.0006264642470974061,0.00013668612803668408,5.709903226013025e-05,7.386616155565588e-05,0.00029645270928881513,1.574467789452177e-07,-9.856680473889987e-05,-2.706955631835243e-05,1.4127160093127281e-05,1.4533220525338306e-05,-1.9046828868860073e-05,-2.5586513517987567e-06
-36.842022983964455,-0.4280401195156226,0.6902885872207928,0.38213002475271063,0.02777611310576755,-0.01065226858603889,-0.1638422693576322,0.05488289616594403,0.04131656260052863,-0.00011350093255797533,0.006835002997939377,-0.0007714701398689987,0.012165910390403364,-0.008917071610198717,-0.0035494600268846294,0.0029960573685475296,0.001580449327410549,-0.0009715994251176918,0.0009004451335357647,-7.263425246797363e-06,-0.00019285062072265383,7.340299147513525e-05,-0.00023316282985093322,7.917597782798147e-05,0.00015346009160711435,4.4473057383127146e-05,1.7408328374199255e-05,-3.544895141454289e-05,1.0622775391159076e-05,-3.1072581193335887e-07
-43.05356096583906,0.4648094486494355,-0.628860006107818,-0.19131287477438982,-0.5893895981046049,-0.06494525253016942,0.23631646708364692,0.13778785344735917,-0.045695914449529126,0.012545535161974724,0.014042712018145609,-0.0007076495076482331,-0.005727472849977037,-0.007228872409844919,-0.005698134377796997,0.0015259116843805997,0.0016885544029481955,-0.00010091495787952765,0.0016779518779451684,-0.0014429861338891637,-2.0128778321915715e-05,-1.2395812391235914e-05,-0.000560858772078572,8.542164128319187e-05,0.0001933210709753321,6.326231879523372e-05,-1.5042246332631132e-05,-6.580843467959554e-05,1.8320675420233015e-05,5.110749565382883e-07
-38.446251853343625,1.17536467388081,-0.16283457806557164,0.1833694566260648,0.08185216208821312,-0.17319923093296058,0.0006712254204458651,0.0015408492416348163,0.015892690994892916,0.036186190870670085,-0.009943313533911749,-0.011579832194593048,0.005833641739865162,0.003962575024279211,-0.003194666394187135,-0.002545205769462769,-0.0029642661265869433,-0.0006918738488564672,0.0005477231182689865,-0.0004387904448867031,-0.0004953845162191755,0.0005062898932769435,0.00015254595435346713,-4.848646937947122e-05,-3.561865351989539e-05,-3.962730395551465e-05,-7.419899068793686e-05,1.5650437825846627e-05,-2.29138499019581e-05,-3.942108222039544e-06
-38.04164589396079,-0.4356535877133727,0.41270586958895483,0.3387333444806656,0.12252254407271597,0.06575108142518488,-0.1667447039849199,0.038799315048595164,0.01805144027241162,-0.003864843437150615,0.015950944484824685,0.010985223023844621,-0.004203332648297223,-0.0022821148419850524,0.0010905459268891133,-0.000875396574713615,0.001528051368745589,-0.0009359501917236984,0.00016045295327774277,0.0003468970238996998,-0.00023849169048598823,7.184526537324264e-05,-0.00026896490774838016,-4.915212765509009e-05,0.00012234446712788496,3.415230073036872e-05,-1.013192435742503e-05,-2.8271041027726896e-06,1.6097872241034176e-05,-1.751721822253759e-06
-47.65188400638144,-3.678626195033721,-0.5847487904366026,-0.06009249892228564,0.029180151755232666,0.10732640243331716,-0.055144587836812795,0.1543454448171397,0.02836784648259553,0.024573915611078388,0.003536929808079668,-0.003990002927382875,0.00362247437989634,-0.0003263880213561875,-0.000653521197783655,-0.00012869120732289394,0.001957649492876248,-0.0006435152381786515,-0.0006313723542078929,2.6254347359313845e-05,6.115559009904933e-06,0.00048182348245005786,0.0001440547631091306,1.618471715976827e-05,6.537547538298111e-05,0.00013361369913547392,-1.4676892003325892e-05,3.6232182461999402e-06,-1.037384630711715e-06,2.1409261403625115e-06
-42.781069317777,-1.4655106680355712,-0.01748150128085514,-0.2954545091378537,0.024392026181123155,-0.011040868500347575,-0.0019865180572867587,0.11825201453978629,0.0465976728571057,-0.014694588136588561,0.00532071580803681,-0.006829294923749597,0.006424324205437757,-0.0026326051585326042,-0.0047068596266758335,0.0023327415476665212,0.0006652364887818678,0.0015265032627543005,0.0008004969797816186,0.0003380232825967731,-0.00010730317215262677,0.0002409664995231454,9.829435997803888e-05,-9.125590583155818e-05,-6.034410433481593e-05,-2.9856882627221625e-05,-3.3511300925354484e-05,-3.2726793069245276e-05,-1.4434944112868638e-05,1.2192904014911516e-06
-35.43384048557317,0.303983494094043,1.3061024226278024,-0.4708665762115288,0.4050248368243384,0.1583500267640236,0.05475400106591734,0.12451440513076344,-0.025749882284821893,0.0032285293480972194,0.006018926073713488,-0.014186388401025573,0.0004781861799143386,0.002977526675486785,0.0034152475039059735,-0.007629912859619037,-0.0014891785853309966,-0.001381225023712814,0.0018035763700570576,0.0025047018520595156,-0.0007964336624142561,-0.000129173116466371,-0.0001778483377238517,-7.885207476034185e-05,-1.2936278817574122e-05,-0.0001382352466292713,6.487612243127464e-05,5.068875491206594e-06,4.447348383045155e-05,-2.2180445945370146e-06
-41.13113114683799,-1.0464196622883801,0.1691729881183978,-0.28945420467169297,0.09981463211493997,0.19430001514603876,-0.03947179302862964,0.1498526790864042,-0.00126080947441907,0.023196260939957546,0.031941983232233635,0.0018848015604537528,0.0018868481824588052,-0.0037925756665220687,0.0029402365839125023,-0.0018308743396478826,0.002157991703611683,0.0029089749731746745,-0.0003172905713166452,0.0004656915555400786,4.4729902889687343e-05,-0.00023168363407444984,0.00015302482418438218,-0.00022416860020026892,3.498591504516595e-05,1.9199922132673603e-06,2.0507533621798596e-05,2.0317568464701278e-05,2.2481369411624658e-06,5.516789596766403e-07
-40.333007993293506,0.40258993603721505,-0.21181105821400614,-0.17631766645853225,0.11433700583581047,-0.09767014621506281,-0.06387574904571137,0.06619985106603844,0.02796219207898107,0.021392722340104205,0.003472017335638528,-0.0030294069009483534,0.007262714836667585,0.0024375817617441294,-0.0022756102819715034,0.0021714336757291276,0.00031300551815027647,0.0008216391959022275,-0.001361824056834171,0.00039614057076395255,-7.227848060214246e-05,0.0002842544021576904,8.366978495005896e-05,-0.00012378125953135463,-8.032377175644625e-05,7.092333326380206e-05,-1.4441053116278365e-05,-2.3427363902826622e-05,-6.491594402994595e-06,-1.0011929061474358e-06
-43.06235768246122,-1.0050586642695876,-0.3784007544648311,-0.1978972169026053,0.08192165154864581,-0.018960516083918477,-0.07275781393432199,0.017006306594724428,-0.020800140600125205,0.02799287158141094,0.008321951242728198,0.0022062448491716683,0.006286010515278456,0.0016736039424328213,0.0004065965912934541,0.0016208436451249884,0.00032847387875247554,0.001580859022487072,-0.002730137402482917,0.0005082103790828275,0.00010260070188554787,0.0003404249231257888,4.831372933902127e-05,-0.00016663339363282226,-2.8735423262628466e-05,2.8130909219213824e-05,-1.719324281248491e-05,-4.709545558544227e-05,2.347110448103171e-05,-9.389435617999534e-07
-39.369165859496434,-0.5436472255113741,0.3668430608861539,-0.07972136042438892,0.11756116742450291,0.08536725314267998,-0.01347283844956538,0.03832113852821231,0.002581189295861998,-0.007874812008322834,0.02131033746185395,0.002798703017770671,-0.0052519138384815285,0.0028327725166682736,0.0032945263487197175,0.0009740206922593919,-0.0007922601141864893,0.002265883636736613,0.00014855549018469882,0.00033721441059780604,-0.0003496819917413899,-8.52238157347821e-05,-1.1664291819468626e-05,-0.00011343551651131603,1.718362378584551e-06,-2.332250179068424e-05,-1.6149404749807916e-05,1.783272966634542e-05,-1.4078850055789642e-05,-1.430009704996953e-07
-42.058592030680494,0.2980751756110556,-0.7053778837019654,0.015404330769596577,0.12421552181156413,-0.014742363825144541,-0.04017901428793629,0.06861545076308584,0.00923816533500731,0.023224289775595184,-0.006232931664128694,-0.00831247407916242,0.008104106636116727,0.0018440875534106605,-0.0027294335043008804,0.0009530690214093902,-3.63514775234377e-05,-0.0006417749838983217,-0.002297883956119038,-5.144595287210382e-05,-0.0004036195859246124,0.00033564191900120437,8.31507059803337e-05,1.8654413072461806e-05,4.405442234147849e-05,0.00010555148217649163,-8.183076524017428e-06,-1.4838868002604444e-05,3.1626904768909335e-05,3.3983004963570356e-06
-43.01065921315858,0.0860262174790602,-0.7073766386111745,-0.11742626836720334,-0.19992817503094645,-0.027686820656040237,0.02573916818305148,0.025654333422267864,-0.02847170524445328,0.006857535421293837,0.005712346531562802,0.0025277593790865994,0.007070832274620948,0.000173453237943738,-0.0012762260384532762,0.0015403081447689542,-0.0007913927190980732,0.0004090054100631273,-0.0013583570882881577,0.0003193004616521596,0.0007217801275784378,0.00022054928705801278,-0.00012067309486760486,-2.7447072021189694e-06,7.003847219250997e-05,-2.5828769143820076e-05,3.5327386633345086e-05,1.4080322400907214e-05,-2.9948907171443805e-05,-1.3422211056215823e-06
-40.61947858030138,0.6985457599949824,-0.38407171740634816,-0.06834059478420143,0.08059344736482076,-0.1360827476630111,0.07395270879333539,0.019089812153827594,-0.0066081245054161125,0.02724042508672314,0.0012778997280160729,-0.0005439346462484708,0.005076014221210831,0.0024759448433111135,-0.0007603459744139696,-0.0004507256412533849,-0.000985567357373569,0.00021970446479391086,-3.81407281329052e-05,-0.001287624227711245,-0.0005104975091818292,0.00034913238242371226,-5.439590268189678e-05,-3.911867787617755e-05,-2.097456022457735e-05,-2.648423493552551e-05,-3.2716495767310264e-05,-5.8745750536859015e-06,-2.992240029653661e-05,-2.8947448855647864e-06
-38.442000363704544,-1.0109779336166334,0.5912439722855645,0.39032156461080386,-0.04831553914340597,0.004235191682303732,0.03009930932623743,0.009516179814613094,0.009643831592623837,0.0008192112684653017,0.016136781885351576,-0.008303923273149367,-0.007917691257831996,-0.009391357024528788,1.836571053493061e-05,-0.004674077827643016,-0.003964453491764978,0.0017546678803185077,-0.001223139296377906,-0.00070108154963768,-0.00032562352633074096,-0.00018097639410023404,0.0002995581495401981,1.7578060267552633e-05,-9.141092649436415e-05,2.6348306490588415e-06,1.4803358771975914e-05,9.602286997105301e-06,-7.066851024427745e-06,-1.3816828146413422e-06
-37.62575452997594,1.5145533294587734,0.012497420635955814,-0.17531370938296867,0.2047886667658598,-0.0328715776552239,-0.11060503045175156,0.018800172625639135,0.016283148768637044,0.029900181555805025,0.014435361598743417,-0.0035658287363134495,0.00275268145409311,0.002031870215162164,5.074852282090835e-05,0.00358297915093085,0.0009286346755857807,-0.002415414570480124,-0.000735670378728842,0.0002486289027115783,-0.0001778191926932785,0.00035160433607279946,0.00013103427107756974,-6.834226105880511e-05,-0.00020405896714376713,5.134257614709779e-05,-1.0716591202901796e-05,-1.3831712054657311e-05,6.8858480351441846e-06,-2.1599781769264005e-06
-43.61941281823737,-1.0460569670727988,-0.46117020596437425,-0.24831692962226573,0.047427818470523755,-0.022944778724354613,-0.03455621282644281,0.002855262622091719,0.017087486505358702,0.0021369058404254846,0.008406449025692975,-0.006857198193695871,0.0031674511487360564,-0.0002362384039435955,-0.006895586783403118,0.0031601437676346653,0.0011204612044622838,-0.0005655751722502603,-0.0015861927205427372,0.0006256258248151232,-0.000207138505013437,-9.50690937546602e-05,2.919730741870246e-05,-5.80648958620698e-05,-5.99382646389413e-05,6.448792341918582e-05,6.686975666667992e-06,-4.066798377601545e-05,-1.0285208046853188e-05,-2.1421258460880688e-08
-43.50377790315938,0.309156455431212,-1.1190848868361107,0.23044702866956662,0.16888816246785737,0.06185936614884979,0.030423711085568347,0.04339474625542725,-0.011781058776018937,-0.026328143835875714,-0.00770392356318943,-0.009588639158252438,-0.010822690643949842,0.005688738496877663,0.00209629455695894,-0.006885518896710903,2.191455306953265e-05,0.0021323385137390744,-0.0030978010624008647,-0.002198632209897769,-0.0004343917592300225,7.517304995780907e-05,0.0002009468653927934,0.0001351748180977151,0.0001248894567061388,1.5054264678002384e-05,-2.51195866535668e-05,-5.877495070172362e-05,5.05434390565655e-05,9.890328965224805e-07
-41.11268134848975,1.0293199796561263,-0.7938652810660166,0.049429336553490605,-0.03400050453656669,0.11879558377943127,-0.14570695848957632,0.06767885124178964,-0.018236896268138885,0.028167076707339436,-0.005527136112345972,-0.0058466852886282965,0.019343707637671716,-0.00047185736631194156,0.0002211019247495364,0.003701573359734739,0.0004318719662414069,-0.0020161954033036545,-0.0030475255216236567,0.0021294648235561336,0.0011158348921200256,0.0006824322597486722,0.0001968023920671646,2.4325866785893388e-05,0.00011410006000022967,0.00021649199543630825,5.455652778979626e-05,2.7855349145476396e-05,5.3430760338414776e-05,5.672003054922104e-07
-39.68603646159895,-0.6271249174351293,0.3854381738976463,-0.031760710059300847,0.11023778964426784,-0.13363220714181415,0.052626886848709815,0.11039309096077833,0.003361888454051222,0.006471542647710852,-0.007341910211131497,0.0020393516602872394,0.009002500082142314,-0.003313183924331097,0.006464047791092937,-0.0011651302223383965,-0.0012321071612109216,0.0009410154301527616,0.0019163189446096374,-0.0008775488074615111,-0.0005598075822784522,0.00025824551943212,-4.409178482337065e-06,-9.226955581087841e-05,-2.7069561527014514e-05,-1.5799333519499828e-05,-3.388129976174342e-05,2.803337828277227e-05,-3.10969903628626e-05,2.561977819342256e-06
-41.51923276821823,0.8513034293700759,-0.796030556416389,0.18882159335389093,0.03860322495881898,-0.10550490370356028,0.00762557809141627,0.10582493329237516,-0.0004782913164394934,0.042424607620689454,-0.011465310099272409,-0.009352324500972906,0.010215961838102161,0.003935615596088732,0.004111082655532902,-0.006780900465510106,-0.0017496564953053627,0.0003309012954202668,-0.0024421042907600532,-0.0012667003970312169,-0.00013608270559714103,0.0011474466752552266,0.00022355002652774052,0.00013745932357578331,0.00015528744828566116,0.00011274922023809556,-7.273727326632605e-05,-7.074866302759034e-06,8.365032095630797e-06,-1.2236796800554462e-06
-39.337220522742754,-0.5510352845261752,0.2559061844380561,0.14013776921948054,0.03473151557831735,0.15519353929284935,-0.06677550947180831,0.14822167284318066,0.016000229802565026,0.005132834169890573,0.011978858184699267,-0.010043273203669054,0.006856684719464654,-0.007214392177586262,0.008458929004185121,-0.0014964397723368423,0.004619247810875048,0.0006548441209544559,0.0004281619217287498,0.0002247662805098675,0.00015030361685952463,-0.00030461097074922577,-5.183589408135699e-05,5.97157369610625e-06,1.720659644636545e-05,2.5259085057103657e-05,1.3819207790480388e-05,2.825254630044574e-05,-5.273512895921125e-06,-1.4246858749405197e-07
-38.05781350512521,-0.05144552020282204,0.5309162945763345,0.04096598586527705,-0.02772152259511516,-0.07179682649802939,0.03548242070720898,0.1622654961563633,0.04144302369952555,0.037171424323181795,0.017496560493037234,-0.007602265971766326,-0.009289334249595166,0.004822806219959935,0.0015109774306751212,-0.0036033149830993257,0.0026977866455638413,0.0006259784655882555,0.0008945094136448515,-0.0005766064455113314,-0.00023791919309870238,2.778313264263657e-05,0.00011001058626022016,-5.047866490006163e-05,-4.384542917161958e-05,-6.192672313825809e-05,3.923746290168667e-06,2.7783346877528378e-05,-2.4355073612338528e-05,-2.00721333239368e-06
-39.707021603090936,-0.10855095358736791,0.43961798377871697,-0.1652477430846587,-0.7051452378117036,-0.028835652177363263,0.1575301256522905,0.10940323217405153,-0.015043994081931305,0.012942020697158323,0.023630917876274284,-0.015282252778846121,0.0009304602513864463,0.006921390880590393,0.003720376122059958,-0.0030958693567321124,-0.004734740771212216,-0.0016988478037692587,0.0015838351363777466,-0.0008909460747801118,-0.0002189821627151356,-0.0003948797022367157,-0.0002802406930039277,-0.00013514614777722955,-0.00018352112913574295,0.000129182243640638,3.369148051870409e-05,-5.516065950071659e-05,6.897816525887836e-05,-1.8501417680584942e-06
-39.93051471032813,0.3683170573301912,0.06984889404506721,-0.33872079843989006,0.005648641288456391,-0.020510399126086567,0.0029403692076158438,0.08766490620848837,0.02224620982059848,-0.0011487026571136664,0.022630697724151452,-0.004099552403903642,-0.006555386870122947,-0.0015604152837891806,-0.0013205767763777789,-0.00155020185711089,0.0008707128084913506,-0.0011125361497275872,-8.189374647208487e-05,0.0001714643776971639,-0.0004562752805513233,-5.8826677610094644e-05,4.807381180202103e-05,-2.9280589068533868e-05,-7.043182754302166e-05,-2.1598019697633653e-05,-3.1500832777104356e-05,-1.956156781182212e-05,-2.7348756524783655e-05,-7.926573075617622e-07
-36.5243711043956,0.23270517089723727,0.6107514533282692,0.22715087286810304,0.11830709202529362,-0.03330359497830406,-0.1622816766567672,0.1042310197867278,0.051058919037900496,0.008088713212965748,0.011770645008152359,-0.0037006999416636177,0.009283646052699818,-0.0071247562157568806,0.008204399380665636,0.00022662224032123915,0.004976872526898996,-0.0022091866576981157,0.00019216791640482993,-4.879708040178216e-05,-0.00037162009340050524,2.0076379268292505e-05,-0.0003202015057819718,1.4445749475722486e-05,9.731061014148816e-05,2.250576354087396e-05,7.616641997446171e-07,-1.4670574231962517e-05,8.135467310413931e-06,-2.3154091974792863e-07
-43.11370604150698,-2.537762945704682,0.050721670421427875,0.16344763829436323,-0.1390290282825632,0.09810973954485258,-0.032382655965041376,0.11662240358352545,0.0019412256601715587,0.060077714282924105,0.00966121093499529,-0.006047406757360462,-0.005539870789924569,-0.0013751040211833017,0.004208523907760724,-0.0018434979786635225,-0.002499439807659686,0.0010958309418130276,-8.27306379428437e-05,-0.0001794016574727019,0.0004237311376194834,7.34889661385312e-05,0.00026931069515284683,0.00015446614971583537,6.855610610885367e-06,7.104407098165073e-05,-1.7872151758349177e-06,1.5746182528205745e-06,-3.068689352772685e-05,4.837897986855999e-06
-46.08134278948988,-3.7745178749699053,-0.2418654683137214,0.16552530714397243,-0.08765026456794922,0.05870621499947873,-0.050947042974119054,0.04852908176091023,0.013265168931680177,0.010939313838314244,-0.007567835349566027,-0.02116091456132762,0.004412232477785457,-0.0008662084440468761,-0.005489883720020655,-0.0003648491491540027,-0.002619644514057364,0.00040347970672379195,0.0004875092184942904,0.0010767089730185269,2.0546910006654954e-05,0.00021364151859046355,0.00020071633779483503,2.146906863668663e-05,-3.258705604897671e-05,4.590189423174338e-05,-3.404623361794072e-05,1.2258409780596886e-05,-1.9532678637274403e-05,-5.386894948511464e-07
-47.85985149605155,-2.829817788489616,-0.9068262393281843,-0.044841554022719304,-0.0016861613343974186,-0.044631193197944695,0.027896457947764117,0.06903469018752971,0.029110221771644598,0.007971566549180988,0.005597893890587554,-0.009084483404987584,0.00188081342001548,0.005828820047253492,-0.001727629416753665,-0.0022399805151287356,-0.0014772975041243129,-0.0012024859482111868,-0.0016664259804783877,-0.001124852657038856,-0.00032963915417086884,0.00027753549710942175,4.499893023138111e-05,1.6034755123712985e-06,4.231891111143251e-05,1.6457851984013875e-05,-3.38410637275476e-05,-6.0093681357933105e-06,-3.1279570360371695e-05,-6.919093237986869e-07
-36.53293603350603,-0.37774208629164874,1.0070148115452684,-0.09098446978477624,0.2612944294157772,-0.01483219611527233,0.011306171291921237,0.054926233277477345,0.01765907489106167,0.008837033754119705,0.018585415860478165,-0.011513990849860396,0.007522206401329436,0.0003355845352182183,0.0030493550073677003,0.003992386432496384,0.00036872779265425116,0.0021962386484686547,0.0007981448974676674,-0.0010168735275748416,-0.0009291863540013028,-0.0004182438085228438,-2.998970756688149e-05,-9.442005168744905e-05,2.2843285510835e-05,-1.6953492478925176e-05,-1.1856863673867255e-05,4.853131465331021e-05,1.1633050655666783e-05,2.0486959409432615e-06
-38.85305561469034,-1.0826914825015121,0.7008762385820304,0.027191457803477693,0.04013971605583164,-0.06264410386936314,0.032281924339209705,0.014878983757036186,-0.008246104589382654,0.014044638176192418,0.007552480265229572,-0.008946717206141507,-0.0044677844735348474,0.003713402266092094,-0.0009559208047312776,0.001501686716751484,0.001640364257105105,0.0010926206903335315,0.0009535693706750303,-0.000733150454665194,-0.0005122777039157925,-0.0002814213782544285,2.7496278442738127e-05,1.3571257735755348e-06,-1.4179940325436442e-05,2.168381250263128e-05,-9.360956140354562e-06,8.375248936806065e-06,-1.1475134793039135e-05,3.4993441485337795e-07
-36.4936563464397,2.394548892031615,0.014921725995390685,-0.2488179741235169,0.17865242258722921,0.017412636310688758,-0.036149246188002714,-0.025577882968543013,-0.019179456058833345,0.007013324956388297,0.013430754432723045,-0.00642257988245688,0.0069601250820939846,-0.004310245868049138,-0.0040387090805199775,0.003235926006120383,0.0008605377117782283,0.0015594113900831213,-0.000989319615419195,0.0002768024108895652,-0.00026853226346242336,3.731280634264544e-05,0.00012698346251380227,-0.00015184897790764248,-7.988399351418833e-05,3.9364753875740606e-05,1.5168394149347544e-05,-2.2744014482809487e-05,1.2438253332848079e-05,1.818114568929757e-06
-35.60387350576449,0.30609379769451067,0.8397864229690579,0.3408868456907656,-0.038353063960031415,-0.023534385238631612,-0.006825391452929833,0.04335008585386537,0.03442710856525244,-0.006319225591593068,0.016130834096123328,-0.0030431761848801857,-0.008063803824991528,-0.00500276742879934,0.0006312893892120166,-0.0006578629925110978,-0.0018862819101819151,0.0021219791985660113,-0.0018595258281848038,-0.0005574805227112106,-0.00026938290157954586,-7.759292599710946e-05,0.00013188709398833723,-7.76945036056793e-05,-5.705288782895621e-05,-7.331446956173614e-05,2.5492277059203168e-05,2.3893595342164727e-06,-5.394660778403198e-06,-2.3009943174374384e-06
-36.277493109769274,1.910488960874471,0.045238276849373024,0.18713141432178923,0.17195232018772652,-0.09245302677803861,-0.12169938916077355,0.09390170894705374,0.034104664289609454,0.02123743814196466,-0.002325882046861134,-0.0016287827134625083,0.014632511006065349,0.005363642853092715,-0.0025673249889820323,-0.0013539644021549923,0.002762357490376165,0.0013659845498097513,0.0005178526712111313,0.000564615219638146,3.52176934277587e-05,-3.9631668549091827e-05,-8.116036394760513e-05,3.5301422320364694e-05,4.4411030234205715e-05,0.00016271571645541013,-2.5722212889029314e-05,-7.3502146728065814e-06,2.8965254820409265e-05,2.0560733484272963e-06
-40.69350501328304,0.3424197860354208,-0.30477245521611596,-0.08837646930237848,0.10907940736352209,-0.14483798659956312,-0.04908985816040542,0.03843220233141133,0.017498068089309433,0.03844913266130224,-0.004415352893533347,0.00568131395773893,0.0014775160693040106,0.006233957157209094,0.0007017029301113447,0.0007232218468297401,-0.0017985945176509136,0.000367810717346226,-0.0017019990345122976,8.475709752572288e-05,-0.00012364928705876885,6.954390790866075e-05,-7.423024026873382e-05,-9.22822618797448e-05,-4.473553864592711e-05,4.750010299105738e-05,-2.31979517131416e-05,-2.8388956689776197e-05,7.539028972249417e-06,4.730891341271876e-06
-45.10513539440051,-1.1577471511145236,-0.8867486135067921,-0.01869718897369786,0.0702372442111906,-0.04786707023736027,0.028654165467662463,0.012219187919757877,-0.006538760169226816,0.021212294927460778,-0.0006632655498487646,-0.003570644376130337,0.01180016362572694,0.005637470543265371,-0.003267504395771086,-9.026686072895895e-05,-0.0014499075755379945,-0.0009186646445545026,-0.0017469591322898258,-0.001220605547216454,-0.00035221575457567794,0.0002981701175396197,-9.711444307409103e-05,2.8836209737369335e-05,2.9701260015167382e-05,-9.975695584208793e-06,-2.3104553468006788e-05,-5.118142737777793e-06,2.0969233722206098e-05,-2.461518314362166e-06
-33.70032823083126,4.709523535486071,-0.09934390565186768,-0.18780765473346264,0.0584509386260154,0.06412659256776254,-0.009231568568392634,0.03810764589013977,0.0038226535407325886,-0.0027460288314834053,0.02470617757054895,-0.008874895367836115,-0.014953056766464681,-0.005240420809395316,-0.003970544830596759,0.00023202701471122632,0.002090211264277314,-0.001982227451479863,-0.0009461541123000985,0.00012593321128255666,-0.000550067200232973,0.00018745341821941564,0.00039221159554812395,8.350579245675792e-05,-4.718913236998008e-05,-0.00016864524789984004,-2.1369947506285926e-05,8.14372086415834e-06,-2.6371851273789407e-05,-2.6893764109981117e-06
-35.279082414387574,2.352402864597644,0.30878009921562793,0.014725583569967367,0.14650074538559688,0.00134736586030696,0.03108384666842592,0.08883578688766994,-0.00713663763617156,0.018107854378990304,0.006011964165737265,-0.008222005486985607,-0.005786951765076864,0.003425945007787201,-0.005047876674636143,0.0013594088622587983,0.0037343434257675508,-0.0013322470558764102,0.0025860878620739868,-0.00048457333885659445,-0.000491165916531226,0.000432001999111081,6.377970195829393e-05,-4.128821338984743e-05,-6.858507281442052e-05,-9.084880649939036e-05,-8.641342270884671e-07,3.3137484222891464e-05,2.0590560523851287e-05,1.690579270503233e-06
-49.10488879619894,-5.370496872670361,-0.29940322272793557,-0.03977729657672379,-0.0074077557802652355,0.09649047756171537,-0.015621282380636465,-0.017668913230818217,-0.021113723582787996,0.00415762573532183,0.01671942781201342,0.0015166214873650857,0.00029731790593325226,0.0032412189497866054,0.002144110403023851,-0.0016679093919361912,-0.00011340707981312183,-0.0016471499902145684,0.0011813239307314589,-0.0005102383787548317,-8.429883499227237e-05,-8.058607358063653e-05,-0.00018678124471703907,-3.7103828077819206e-05,-4.0935029054258836e-05,2.6038888439267508e-05,-3.1431959220346454e-05,7.874403511706376e-06,-2.7364711602337335e-05,-6.813381572862013e-07
-43.86926879953859,-0.717468273035901,-0.6913636762627343,-0.08629757999592724,-0.013932028258059304,-0.032278946441089286,0.07333356879690452,-0.008819921014993322,-0.006070094489084592,0.01128918882212086,0.013285159090217574,-0.004482287736643836,0.004803988049275977,0.0027474248679172928,-0.0009854596104086476,-0.00040263894168024726,-0.0005186515677062269,0.0016196115767565466,-0.0013157070715310213,-0.0010395116209237726,-4.506998717315917e-05,0.00021131231005466314,-0.00017616329313929914,2.2368172225817422e-05,2.4522355998143457e-05,-5.8735781564156986e-05,-2.180504348110891e-05,-4.036619603815443e-05,-2.1842629801601504e-05,-2.7961798241295757e-07
-37.48104803845807,-0.6958564280257703,0.5862206309202181,0.4067929231257068,0.04646746120819632,0.02001101009740449,-0.18524465972846255,-0.0459059873870683,0.02490363520717891,0.0008237375816872646,0.025206780583959563,0.004484834249600343,0.0038132479167938813,-0.007347716684768238,-0.0008805918203748132,0.0016911786212213844,-0.001262368033327938,-0.002331428989732905,-0.00015695222488701268,9.623395322909662e-05,-0.0005011727381826771,0.0001863938258038805,-0.00035504740553777805,1.1868292289727238e-05,0.0002055096291827321,5.6902606364578826e-05,9.15093247481589e-06,-5.354622996533446e-05,1.148352727410305e-05,4.081799461592849e-07
-45.556832532699936,-1.4576389471260112,-0.9304274629839595,0.09112416124762414,0.03166107859356254,0.003368451102625969,0.010751860957092532,0.044748839298002586,0.005037351568610219,0.01961051896323466,-0.004230964611751174,-0.008254437210911778,0.0018216201417315672,0.010098113411989029,-0.008705684463123592,-0.0011180034892001283,-0.0007112179063585957,-0.001640339300304955,-0.0007776101696647977,-0.0009578767336287842,-0.00020816830340336445,0.000313073455290678,2.2298608252945413e-05,4.4158363724472456e-05,4.384090649141608e-05,-2.0739434917340314e-05,-2.7626032267264398e-05,1.63744676772976e-05,9.158525020442223e-06,3.2144211789307084e-06
-40.13909548408357,0.35501496030770374,-0.23510005900170358,0.1216315403980231,0.12372824873930632,-0.1832566097738775,0.05653823906045003,-0.03433270815717134,0.003448822084603998,0.02340708939709081,-0.009985214754376474,-0.006629542694692919,0.0075628518063231035,0.0013742625827621597,0.0007846465668711044,-0.004137839408489833,-0.0023798977703201165,-0.0003322140419657641,0.0006794547720465415,-0.0012082436224177449,-0.0007871522114279841,0.00030124101436600133,1.3181857873275548e-05,-8.855891185648492e-05,-5.796452899988616e-05,-0.00013233805714688707,-6.802266058424114e-05,2.4551367613964222e-05,-2.660594141022627e-05,-2.1269233641661777e-06
-48.16343148876336,-3.1446934277032423,-0.9480999463148879,0.03972338635976546,0.03282605508957229,0.11986008453032587,0.02491654365181397,-0.002562185375397971,-0.018856758433640375,-0.0020243760195085337,0.008378547614690271,-0.016466755469381623,-0.0026469187028082372,0.0016463437088159168,-0.0015234640246210341,-0.0018664338193641427,0.00047308413408790904,-0.00031669044780873243,-0.002016754044420391,-0.0008962770322677044,-0.0005310847745448445,-1.2596338896990238e-05,-9.116431520339364e-05,7.788377665487394e-05,5.006351086582057e-05,2.7531979853570828e-05,-3.941637156794716e-05,-3.460932694941114e-05,-6.194509118302446e-06,1.1742042960939455e-06
